Data written for 2 signals in a group signal
Ref Chan:Resp Chan	 0-Z:0-Z	 0-Z:0-Z
Channel Names	I1	I2
Channel Comments		

   	 X1	 X2
Time	 Real	Real
   	EU	EU

Units:
sec	N	m/s²
0.0000000000000e+000	        1.130447	        1.602484
1.2500000000000e-003	        1.655223	        2.128601
2.5000000000000e-003	        2.157586	        2.645127
3.7500000000000e-003	        2.632587	        3.094193
5.0000000000000e-003	         3.07189	         3.50268
6.2500000000000e-003	        3.469685	        3.893536
7.5000000000000e-003	        3.823613	        4.220004
8.7500000000000e-003	         4.12125	        4.482286
1.0000000000000e-002	        4.364468	         4.68016
1.1250000000000e-002	        4.545299	        4.817125
1.2500000000000e-002	        4.664362	        4.886473
1.3750000000000e-002	        4.714035	        4.885954
1.5000000000000e-002	        4.696671	        4.832423
1.6250000000000e-002	        4.609947	        4.703077
1.7500000000000e-002	        4.455175	         4.49103
1.8750000000000e-002	        4.237569	        4.252019
2.0000000000000e-002	        3.957724	        3.947657
2.1250000000000e-002	        3.622711	        3.573592
2.2500000000000e-002	        3.237477	        3.160962
2.3750000000000e-002	        2.810989	         2.69696
2.5000000000000e-002	        2.347158	         2.20671
2.6250000000000e-002	        1.852409	        1.690114
2.7500000000000e-002	        1.338382	        1.143721
2.8750000000000e-002	       0.8065056	       0.5700769
3.0000000000000e-002	       0.2670679	       0.0144081
3.1250000000000e-002	      -0.2748867	      -0.5574587
3.2500000000000e-002	       -0.809298	       -1.110043
3.3750000000000e-002	       -1.332596	       -1.646158
3.5000000000000e-002	       -1.834453	       -2.177065
3.6250000000000e-002	       -2.311029	       -2.656377
3.7500000000000e-002	       -2.756098	       -3.116327
3.8750000000000e-002	       -3.159971	       -3.517609
4.0000000000000e-002	       -3.521962	       -3.884543
4.1250000000000e-002	       -3.835256	       -4.180655
4.2500000000000e-002	       -4.098149	       -4.416123
4.3750000000000e-002	       -4.305374	       -4.584877
4.5000000000000e-002	       -4.455219	       -4.696098
4.6250000000000e-002	        -4.54466	       -4.763803
4.7500000000000e-002	       -4.567779	       -4.739427
4.8750000000000e-002	       -4.530834	       -4.662892
5.0000000000000e-002	       -4.430103	       -4.515561
5.1250000000000e-002	       -4.267412	       -4.296845
5.2500000000000e-002	       -4.044238	       -4.020196
5.3750000000000e-002	       -3.767522	       -3.702135
5.5000000000000e-002	       -3.438358	       -3.317331
5.6250000000000e-002	       -3.063845	       -2.886178
5.7500000000000e-002	       -2.645453	       -2.416967
5.8750000000000e-002	       -2.189129	       -1.905566
6.0000000000000e-002	       -1.704925	       -1.378097
6.1250000000000e-002	       -1.194751	      -0.8426973
6.2500000000000e-002	      -0.6695303	      -0.2732136
6.3750000000000e-002	      -0.1313011	       0.2834216
6.5000000000000e-002	       0.4083451	       0.8433949
6.6250000000000e-002	        0.945844	        1.394809
6.7500000000000e-002	        1.478719	        1.936819
6.8750000000000e-002	        1.988741	         2.44646
7.0000000000000e-002	        2.474883	        2.927282
7.1250000000000e-002	        2.927897	        3.373917
7.2500000000000e-002	        3.343811	        3.749968
7.3750000000000e-002	         3.71259	        4.107492
7.5000000000000e-002	        4.030181	        4.390066
7.6250000000000e-002	        4.292862	        4.595014
7.7500000000000e-002	        4.496369	        4.751229
7.8750000000000e-002	        4.637071	        4.857369
8.0000000000000e-002	        4.709151	        4.881816
8.1250000000000e-002	        4.713711	        4.844128
8.2500000000000e-002	        4.648176	        4.731417
8.3750000000000e-002	        4.514568	        4.562885
8.5000000000000e-002	        4.314146	        4.341587
8.6250000000000e-002	        4.051251	        4.041864
8.7500000000000e-002	        3.736151	        3.689539
8.8750000000000e-002	        3.366655	        3.275251
9.0000000000000e-002	        2.953204	        2.826892
9.1250000000000e-002	         2.50208	        2.347064
9.2500000000000e-002	        2.020408	        1.827066
9.3750000000000e-002	        1.512542	        1.302661
9.5000000000000e-002	       0.9877033	       0.7403751
9.6250000000000e-002	       0.4511912	       0.1676254
9.7500000000000e-002	     -0.09045903	      -0.3944541
9.8750000000000e-002	      -0.6270449	       -0.959651
1.0000000000000e-001	       -1.155443	       -1.509973
1.0125000000000e-001	       -1.665361	       -2.034542
1.0250000000000e-001	       -2.153343	       -2.532949
1.0375000000000e-001	       -2.611187	       -2.989629
1.0500000000000e-001	       -3.031776	        -3.40464
1.0625000000000e-001	       -3.411306	       -3.783688
1.0750000000000e-001	       -3.740541	       -4.108544
1.0875000000000e-001	       -4.020743	        -4.36893
1.1000000000000e-001	       -4.245656	       -4.562551
1.1125000000000e-001	       -4.413411	       -4.690409
1.1250000000000e-001	       -4.520207	       -4.767133
1.1375000000000e-001	       -4.565817	       -4.773883
1.1500000000000e-001	       -4.548229	        -4.71274
1.1625000000000e-001	       -4.468403	        -4.57635
1.1750000000000e-001	       -4.324825	       -4.392572
1.1875000000000e-001	       -4.120187	       -4.140164
1.2000000000000e-001	       -3.861545	       -3.835385
1.2125000000000e-001	       -3.549357	       -3.467614
1.2250000000000e-001	       -3.191763	       -3.052473
1.2375000000000e-001	       -2.788243	       -2.605141
1.2500000000000e-001	       -2.346411	       -2.111478
1.2625000000000e-001	       -1.874683	       -1.593027
1.2750000000000e-001	       -1.370207	       -1.054548
1.2875000000000e-001	      -0.8503884	      -0.4718137
1.3000000000000e-001	      -0.3147453	      0.08777524
1.3125000000000e-001	       0.2260644	       0.6521307
1.3250000000000e-001	       0.7690139	        1.216795
1.3375000000000e-001	        1.304035	        1.756985
1.3500000000000e-001	          1.8233	        2.287601
1.3625000000000e-001	        2.318437	         2.76155
1.3750000000000e-001	        2.783958	        3.214939
1.3875000000000e-001	        3.215053	        3.616904
1.4000000000000e-001	        3.599566	        3.977692
1.4125000000000e-001	        3.934329	        4.288332
1.4250000000000e-001	         4.21412	        4.519335
1.4375000000000e-001	        4.436591	        4.691341
1.4500000000000e-001	        4.595332	         4.80824
1.4625000000000e-001	        4.686676	        4.877626
1.4750000000000e-001	        4.715863	         4.85614
1.4875000000000e-001	        4.673336	        4.756506
1.5000000000000e-001	        4.562714	        4.591322
1.5125000000000e-001	        4.385398	        4.375005
1.5250000000000e-001	        4.146713	        4.114228
1.5375000000000e-001	        3.847425	        3.776579
1.5500000000000e-001	        3.496345	        3.394823
1.5625000000000e-001	        3.098703	        2.961078
1.5750000000000e-001	        2.659845	        2.497324
1.5875000000000e-001	        2.188599	        1.987995
1.6000000000000e-001	        1.687226	        1.448326
1.6125000000000e-001	        1.167371	       0.9020027
1.6250000000000e-001	       0.6320454	       0.3334025
1.6375000000000e-001	       0.0897545	      -0.2328966
1.6500000000000e-001	      -0.4520738	        -0.80776
1.6625000000000e-001	      -0.9867091	       -1.350631
1.6750000000000e-001	       -1.502333	       -1.878409
1.6875000000000e-001	         -1.9979	       -2.392942
1.7000000000000e-001	       -2.465567	       -2.867903
1.7125000000000e-001	       -2.898728	       -3.300109
1.7250000000000e-001	       -3.289363	       -3.695713
1.7375000000000e-001	       -3.635623	       -4.032637
1.7500000000000e-001	       -3.931783	       -4.310215
1.7625000000000e-001	       -4.173786	       -4.533934
1.7750000000000e-001	       -4.360772	       -4.690677
1.7875000000000e-001	       -4.486894	       -4.779946
1.8000000000000e-001	       -4.553636	       -4.808047
1.8125000000000e-001	       -4.556944	       -4.769347
1.8250000000000e-001	       -4.498967	       -4.651471
1.8375000000000e-001	        -4.37756	       -4.475752
1.8500000000000e-001	       -4.195588	       -4.241739
1.8625000000000e-001	       -3.959264	       -3.952907
1.8750000000000e-001	       -3.662822	       -3.612988
1.8875000000000e-001	       -3.319419	       -3.217713
1.9000000000000e-001	        -2.93075	        -2.77259
1.9125000000000e-001	       -2.500455	       -2.302241
1.9250000000000e-001	        -2.03482	       -1.795422
1.9375000000000e-001	       -1.540347	       -1.253831
1.9500000000000e-001	       -1.024747	      -0.6932004
1.9625000000000e-001	        -0.49331	      -0.1140963
1.9750000000000e-001	       0.0474726	       0.4578127
1.9875000000000e-001	       0.5924005	         1.02473
2.0000000000000e-001	        1.130028	        1.576954
2.0125000000000e-001	        1.655441	        2.108385
2.0250000000000e-001	        2.158397	        2.613669
2.0375000000000e-001	        2.632876	        3.082072
2.0500000000000e-001	        3.073516	        3.496099
2.0625000000000e-001	        3.469071	        3.870533
2.0750000000000e-001	        3.823222	        4.194583
2.0875000000000e-001	        4.121561	          4.4531
2.1000000000000e-001	        4.364392	        4.651579
2.1125000000000e-001	        4.544804	         4.79494
2.1250000000000e-001	        4.663183	        4.866217
2.1375000000000e-001	        4.714075	         4.87141
2.1500000000000e-001	        4.695794	        4.798835
2.1625000000000e-001	        4.609893	        4.674261
2.1750000000000e-001	        4.454285	        4.491008
2.1875000000000e-001	         4.23706	        4.237451
2.2000000000000e-001	        3.956691	        3.921147
2.2125000000000e-001	        3.622715	        3.552955
2.2250000000000e-001	        3.238246	        3.125333
2.2375000000000e-001	        2.811041	        2.667715
2.2500000000000e-001	        2.348192	        2.174742
2.2625000000000e-001	        1.852483	        1.660974
2.2750000000000e-001	        1.338195	        1.105068
2.2875000000000e-001	       0.8072069	       0.5347342
2.3000000000000e-001	       0.2672275	     -0.04226594
2.3125000000000e-001	      -0.2743672	      -0.6050415
2.3250000000000e-001	      -0.8094459	       -1.159606
2.3375000000000e-001	       -1.331972	       -1.708924
2.3500000000000e-001	       -1.833695	       -2.225545
2.3625000000000e-001	       -2.309676	       -2.717037
2.3750000000000e-001	       -2.756089	       -3.151855
2.3875000000000e-001	        -3.15969	       -3.542149
2.4000000000000e-001	       -3.521786	       -3.916021
2.4125000000000e-001	       -3.835104	       -4.214217
2.4250000000000e-001	       -4.097215	       -4.460358
2.4375000000000e-001	       -4.304699	       -4.638707
2.4500000000000e-001	        -4.45251	       -4.772668
2.4625000000000e-001	       -4.544287	       -4.822014
2.4750000000000e-001	       -4.568165	       -4.790919
2.4875000000000e-001	       -4.530498	       -4.716347
2.5000000000000e-001	       -4.430064	       -4.556485
2.5125000000000e-001	       -4.266911	       -4.355123
2.5250000000000e-001	       -4.045304	       -4.091492
2.5375000000000e-001	       -3.766889	        -3.76197
2.5500000000000e-001	       -3.438413	       -3.374894
2.5625000000000e-001	       -3.063608	       -2.944311
2.5750000000000e-001	       -2.646201	       -2.480434
2.5875000000000e-001	       -2.189651	       -1.982057
2.6000000000000e-001	       -1.705237	       -1.446995
2.6125000000000e-001	       -1.195198	      -0.9021419
2.6250000000000e-001	      -0.6688885	      -0.3466288
2.6375000000000e-001	      -0.1313571	        0.217596
2.6500000000000e-001	        0.409756	        0.772924
2.6625000000000e-001	       0.9458106	        1.325838
2.6750000000000e-001	        1.478401	        1.866394
2.6875000000000e-001	        1.989508	        2.381302
2.7000000000000e-001	        2.474141	        2.848165
2.7125000000000e-001	        2.927423	        3.291268
2.7250000000000e-001	        3.342799	        3.689621
2.7375000000000e-001	        3.712293	        4.032829
2.7500000000000e-001	        4.029319	        4.314149
2.7625000000000e-001	        4.292261	        4.539071
2.7750000000000e-001	         4.49457	        4.697699
2.7875000000000e-001	        4.635921	        4.793942
2.8000000000000e-001	          4.7081	        4.831537
2.8125000000000e-001	        4.712547	        4.797241
2.8250000000000e-001	        4.647916	        4.690624
2.8375000000000e-001	        4.513742	        4.513811
2.8500000000000e-001	        4.315272	        4.290733
2.8625000000000e-001	        4.051629	        4.003744
2.8750000000000e-001	        3.735533	        3.663907
2.8875000000000e-001	        3.367517	        3.252291
2.9000000000000e-001	        2.954592	        2.809321
2.9125000000000e-001	        2.503212	        2.329021
2.9250000000000e-001	        2.021153	        1.810178
2.9375000000000e-001	        1.513633	        1.276623
2.9500000000000e-001	       0.9879028	       0.7211049
2.9625000000000e-001	       0.4522418	       0.1520644
2.9750000000000e-001	     -0.08996363	      -0.4250728
2.9875000000000e-001	      -0.6262008	      -0.9881904
3.0000000000000e-001	       -1.153806	       -1.526477
3.0125000000000e-001	       -1.664019	       -2.049825
3.0250000000000e-001	       -2.150853	       -2.556142
3.0375000000000e-001	       -2.609193	        -3.02488
3.0500000000000e-001	       -3.028609	       -3.430515
3.0625000000000e-001	       -3.408161	        -3.78453
3.0750000000000e-001	       -3.738858	       -4.104268
3.0875000000000e-001	       -4.018073	       -4.361587
3.1000000000000e-001	        -4.24379	       -4.564313
3.1125000000000e-001	       -4.411555	       -4.701047
3.1250000000000e-001	       -4.519146	       -4.771793
3.1375000000000e-001	       -4.564633	       -4.784073
3.1500000000000e-001	       -4.547277	       -4.710783
3.1625000000000e-001	       -4.467011	       -4.580361
3.1750000000000e-001	       -4.324671	       -4.387245
3.1875000000000e-001	       -4.119585	       -4.145292
3.2000000000000e-001	       -3.860974	       -3.831406
3.2125000000000e-001	        -3.54859	       -3.463985
3.2250000000000e-001	       -3.189639	       -3.056329
3.2375000000000e-001	       -2.787322	       -2.604165
3.2500000000000e-001	       -2.344611	       -2.115499
3.2625000000000e-001	       -1.874365	       -1.594562
3.2750000000000e-001	       -1.371038	       -1.052572
3.2875000000000e-001	      -0.8503634	      -0.4884391
3.3000000000000e-001	      -0.3156946	      0.07306952
3.3125000000000e-001	        0.225504	       0.6433846
3.3250000000000e-001	       0.7678028	        1.204887
3.3375000000000e-001	         1.30292	        1.746666
3.3500000000000e-001	        1.821847	        2.274755
3.3625000000000e-001	        2.318024	        2.767116
3.3750000000000e-001	        2.782468	        3.207716
3.3875000000000e-001	        3.212977	        3.604993
3.4000000000000e-001	        3.597403	        3.964953
3.4125000000000e-001	        3.931953	        4.275182
3.4250000000000e-001	        4.212803	        4.522667
3.4375000000000e-001	        4.434815	        4.705637
3.4500000000000e-001	        4.595206	        4.829322
3.4625000000000e-001	        4.685915	        4.885159
3.4750000000000e-001	        4.714102	        4.855014
3.4875000000000e-001	        4.673023	        4.770417
3.5000000000000e-001	        4.562225	        4.619698
3.5125000000000e-001	         4.38483	        4.394732
3.5250000000000e-001	        4.145432	        4.135168
3.5375000000000e-001	        3.847265	        3.796331
3.5500000000000e-001	        3.496048	        3.415631
3.5625000000000e-001	        3.099512	        2.981592
3.5750000000000e-001	        2.659141	        2.518159
3.5875000000000e-001	        2.188675	        2.018889
3.6000000000000e-001	         1.68779	        1.497078
3.6125000000000e-001	         1.16705	       0.9429632
3.6250000000000e-001	       0.6332062	       0.3873756
3.6375000000000e-001	      0.09058772	       -0.169408
3.6500000000000e-001	      -0.4498433	       -0.729174
3.6625000000000e-001	      -0.9846826	       -1.286737
3.6750000000000e-001	        -1.50177	       -1.823643
3.6875000000000e-001	       -1.996303	       -2.330806
3.7000000000000e-001	       -2.464602	       -2.809644
3.7125000000000e-001	       -2.897228	        -3.23823
3.7250000000000e-001	       -3.288795	       -3.621977
3.7375000000000e-001	       -3.634254	       -3.957303
3.7500000000000e-001	       -3.930816	       -4.229641
3.7625000000000e-001	       -4.172823	       -4.464981
3.7750000000000e-001	       -4.359841	       -4.622524
3.7875000000000e-001	       -4.485888	       -4.718715
3.8000000000000e-001	       -4.552444	       -4.747026
3.8125000000000e-001	       -4.556385	       -4.701481
3.8250000000000e-001	       -4.498244	        -4.58774
3.8375000000000e-001	       -4.377798	       -4.416554
3.8500000000000e-001	       -4.195238	       -4.198707
3.8625000000000e-001	       -3.959407	       -3.913906
3.8750000000000e-001	       -3.664517	       -3.566686
3.8875000000000e-001	       -3.319198	       -3.148765
3.9000000000000e-001	       -2.931015	        -2.70302
3.9125000000000e-001	       -2.501321	       -2.228563
3.9250000000000e-001	       -2.036383	       -1.723942
3.9375000000000e-001	       -1.541105	       -1.180393
3.9500000000000e-001	       -1.026204	      -0.6194945
3.9625000000000e-001	      -0.4941117	     -0.06507174
3.9750000000000e-001	      0.04533603	       0.5087055
3.9875000000000e-001	        0.590275	        1.057744
4.0000000000000e-001	        1.129552	        1.616445
4.0125000000000e-001	        1.654235	        2.152062
4.0250000000000e-001	        2.157808	        2.648816
4.0375000000000e-001	        2.631911	        3.113004
4.0500000000000e-001	        3.072835	        3.517165
4.0625000000000e-001	        3.468716	        3.894083
4.0750000000000e-001	         3.82163	         4.21063
4.0875000000000e-001	        4.121175	        4.482303
4.1000000000000e-001	        4.363794	         4.68325
4.1125000000000e-001	        4.544685	        4.820788
4.1250000000000e-001	        4.662268	        4.885413
4.1375000000000e-001	        4.713428	         4.89591
4.1500000000000e-001	        4.695042	         4.83303
4.1625000000000e-001	        4.609597	        4.695522
4.1750000000000e-001	        4.453646	        4.498825
4.1875000000000e-001	        4.235924	        4.254265
4.2000000000000e-001	        3.956987	        3.944423
4.2125000000000e-001	        3.622557	        3.575517
4.2250000000000e-001	        3.239506	        3.165505
4.2375000000000e-001	        2.811805	        2.694793
4.2500000000000e-001	        2.349712	        2.213526
4.2625000000000e-001	        1.854252	        1.689815
4.2750000000000e-001	        1.339881	        1.129486
4.2875000000000e-001	       0.8087402	       0.5720452
4.3000000000000e-001	       0.2680524	       0.0150839
4.3125000000000e-001	      -0.2733129	      -0.5619799
4.3250000000000e-001	      -0.8082646	       -1.121914
4.3375000000000e-001	       -1.330104	       -1.645915
4.3500000000000e-001	       -1.833057	       -2.178682
4.3625000000000e-001	       -2.308538	        -2.65799
4.3750000000000e-001	       -2.754072	        -3.09932
4.3875000000000e-001	       -3.158455	       -3.504576
4.4000000000000e-001	       -3.519751	       -3.855495
4.4125000000000e-001	       -3.833815	       -4.171025
4.4250000000000e-001	       -4.095135	       -4.407869
4.4375000000000e-001	        -4.30311	       -4.585948
4.4500000000000e-001	       -4.451265	       -4.712703
4.4625000000000e-001	       -4.541327	       -4.770978
4.4750000000000e-001	       -4.565997	       -4.755597
4.4875000000000e-001	       -4.527806	       -4.668315
