Data written for 2 signals in a group signal
Ref Chan:Resp Chan	 0-Z:0-Z	 0-Z:0-Z
Channel Names	I1	I2
Channel Comments		

   	 X1	 X2
Time	 Real	Real
   	EU	EU

Units:
sec	N	m/s²
0.0000000000000e+000	     -0.05198602	      -0.3115516
1.2500000000000e-003	     -0.04006731	     -0.09910048
2.5000000000000e-003	     -0.03061192	       0.1109526
3.7500000000000e-003	     -0.02094141	        0.317146
5.0000000000000e-003	     -0.01284133	       0.5309361
6.2500000000000e-003	    -0.002973114	       0.7476462
7.5000000000000e-003	     0.004885365	       0.9459029
8.7500000000000e-003	      0.01275637	        1.125942
1.0000000000000e-002	      0.02468477	        1.298505
1.1250000000000e-002	      0.03286651	        1.454864
1.2500000000000e-002	      0.04218888	        1.589098
1.3750000000000e-002	      0.05119836	        1.722532
1.5000000000000e-002	      0.06262004	        1.814934
1.6250000000000e-002	      0.07266251	        1.904845
1.7500000000000e-002	      0.08327464	        1.960982
1.8750000000000e-002	      0.09137003	        2.000998
2.0000000000000e-002	       0.1005196	        2.016581
2.1250000000000e-002	       0.1109749	        1.997495
2.2500000000000e-002	       0.1163487	        1.956951
2.3750000000000e-002	       0.1209508	        1.894338
2.5000000000000e-002	       0.1223628	        1.805783
2.6250000000000e-002	       0.1252445	         1.69711
2.7500000000000e-002	       0.1222499	        1.575363
2.8750000000000e-002	       0.1193244	        1.419083
3.0000000000000e-002	       0.1237658	        1.257329
3.1250000000000e-002	        0.118883	        1.094407
3.2500000000000e-002	       0.1164206	       0.9106864
3.3750000000000e-002	       0.1130015	       0.6958466
3.5000000000000e-002	       0.1102217	       0.4938949
3.6250000000000e-002	        0.104515	       0.2679572
3.7500000000000e-002	      0.09920338	      0.04993828
3.8750000000000e-002	      0.09039657	       -0.165352
4.0000000000000e-002	      0.08365424	      -0.3774167
4.1250000000000e-002	      0.07711114	      -0.5906052
4.2500000000000e-002	      0.06618147	      -0.7936922
4.3750000000000e-002	      0.05496392	      -0.9814181
4.5000000000000e-002	      0.03985628	       -1.161994
4.6250000000000e-002	      0.02600474	       -1.329061
4.7500000000000e-002	      0.01005511	       -1.469588
4.8750000000000e-002	    -0.006743122	       -1.593683
5.0000000000000e-002	     -0.01814532	       -1.698872
5.1250000000000e-002	     -0.03330491	       -1.770138
5.2500000000000e-002	     -0.04689042	        -1.83298
5.3750000000000e-002	     -0.05947405	       -1.861131
5.5000000000000e-002	     -0.06753332	       -1.877568
5.6250000000000e-002	     -0.07734566	       -1.851451
5.7500000000000e-002	     -0.08169881	       -1.804069
5.8750000000000e-002	     -0.08633839	       -1.759049
6.0000000000000e-002	     -0.08911535	       -1.673016
6.1250000000000e-002	     -0.08665393	       -1.578985
6.2500000000000e-002	     -0.08627096	        -1.44854
6.3750000000000e-002	     -0.08221472	       -1.306514
6.5000000000000e-002	     -0.07960351	       -1.143451
6.6250000000000e-002	     -0.07324518	      -0.9716844
6.7500000000000e-002	     -0.06779619	      -0.7814639
6.8750000000000e-002	     -0.06171161	      -0.5772132
7.0000000000000e-002	     -0.05211565	      -0.3814295
7.1250000000000e-002	     -0.04550716	      -0.1710333
7.2500000000000e-002	     -0.03651545	      0.04629246
7.3750000000000e-002	      -0.0279666	        0.258411
7.5000000000000e-002	     -0.01610824	       0.4894872
7.6250000000000e-002	    -0.007076034	       0.6965347
7.7500000000000e-002	     0.004262663	        0.882381
7.8750000000000e-002	      0.01268594	        1.060143
8.0000000000000e-002	      0.02248219	        1.225056
8.1250000000000e-002	      0.03470922	        1.396175
8.2500000000000e-002	      0.04380447	        1.534075
8.3750000000000e-002	      0.05466459	        1.660888
8.5000000000000e-002	      0.06211108	        1.773636
8.6250000000000e-002	      0.07264756	        1.851059
8.7500000000000e-002	       0.0781871	        1.907001
8.8750000000000e-002	      0.08480301	        1.940653
9.0000000000000e-002	      0.09718975	        1.955822
9.1250000000000e-002	       0.1025892	        1.951221
9.2500000000000e-002	        0.108241	        1.920084
9.3750000000000e-002	       0.1133235	        1.851457
9.5000000000000e-002	       0.1185505	        1.764881
9.6250000000000e-002	       0.1212633	        1.667872
9.7500000000000e-002	        0.124103	        1.545204
9.8750000000000e-002	       0.1219829	        1.393505
1.0000000000000e-001	       0.1236084	        1.232314
1.0125000000000e-001	       0.1247919	        1.058801
1.0250000000000e-001	       0.1222714	       0.8713435
1.0375000000000e-001	       0.1199855	       0.6791474
1.0500000000000e-001	         0.11438	       0.4778534
1.0625000000000e-001	       0.1098594	        0.271764
1.0750000000000e-001	      0.09985249	      0.05779861
1.0875000000000e-001	      0.09030368	      -0.1499825
1.1000000000000e-001	      0.08548701	      -0.3738887
1.1125000000000e-001	      0.07308903	      -0.5846876
1.1250000000000e-001	      0.06259662	      -0.7911561
1.1375000000000e-001	      0.05062005	      -0.9852641
1.1500000000000e-001	      0.03999274	       -1.171097
1.1625000000000e-001	      0.02487726	       -1.330549
1.1750000000000e-001	      0.01292504	       -1.467395
1.1875000000000e-001	     -0.00269511	       -1.590203
1.2000000000000e-001	     -0.01634494	       -1.698331
1.2125000000000e-001	     -0.02731232	       -1.789801
1.2250000000000e-001	     -0.04053165	       -1.867678
1.2375000000000e-001	     -0.05231198	       -1.900917
1.2500000000000e-001	     -0.06497536	        -1.91526
1.2625000000000e-001	     -0.07411701	       -1.917551
1.2750000000000e-001	     -0.08381078	       -1.883227
1.2875000000000e-001	     -0.08971635	       -1.826236
1.3000000000000e-001	     -0.09122026	       -1.753829
1.3125000000000e-001	     -0.09371236	       -1.648543
1.3250000000000e-001	     -0.09256212	         -1.5101
1.3375000000000e-001	     -0.09003906	       -1.361965
1.3500000000000e-001	      -0.0837959	       -1.205726
1.3625000000000e-001	     -0.07846492	       -1.030063
1.3750000000000e-001	     -0.06927232	      -0.8365324
1.3875000000000e-001	     -0.06230456	      -0.6393009
1.4000000000000e-001	     -0.05473742	      -0.4249424
1.4125000000000e-001	     -0.04333502	      -0.2131528
1.4250000000000e-001	     -0.03411383	      0.01526887
1.4375000000000e-001	      -0.0242912	       0.2238249
1.4500000000000e-001	     -0.01699992	       0.4305225
1.4625000000000e-001	    -0.007477753	       0.6465147
1.4750000000000e-001	    0.0004117727	       0.8394079
1.4875000000000e-001	     0.008258815	        1.038986
1.5000000000000e-001	      0.02011296	        1.219953
1.5125000000000e-001	      0.02793581	        1.387982
1.5250000000000e-001	      0.03725107	        1.534882
1.5375000000000e-001	      0.04707034	        1.659492
1.5500000000000e-001	      0.05833393	        1.761498
1.5625000000000e-001	      0.06842383	        1.836579
1.5750000000000e-001	      0.07923708	        1.905369
1.5875000000000e-001	      0.08763275	        1.947645
1.6000000000000e-001	      0.09731641	        1.964658
1.6125000000000e-001	       0.1075019	        1.947034
1.6250000000000e-001	       0.1136023	        1.917039
1.6375000000000e-001	       0.1200186	        1.868621
1.6500000000000e-001	       0.1214859	        1.783572
1.6625000000000e-001	       0.1244206	        1.681994
1.6750000000000e-001	       0.1219702	        1.569363
1.6875000000000e-001	       0.1194466	        1.429624
1.7000000000000e-001	       0.1240967	        1.279853
1.7125000000000e-001	       0.1199058	        1.098273
1.7250000000000e-001	       0.1179954	       0.9100495
1.7375000000000e-001	       0.1150696	       0.7070272
1.7500000000000e-001	       0.1130591	       0.5079755
1.7625000000000e-001	       0.1078873	        0.305784
1.7750000000000e-001	       0.1026228	       0.0830309
1.7875000000000e-001	      0.09381009	      -0.1285026
1.8000000000000e-001	      0.08784824	       -0.346398
1.8125000000000e-001	      0.08109857	      -0.5545325
1.8250000000000e-001	      0.06937876	      -0.7609068
1.8375000000000e-001	      0.05850836	      -0.9558781
1.8500000000000e-001	      0.04328392	       -1.131631
1.8625000000000e-001	      0.02932947	       -1.288711
1.8750000000000e-001	      0.01394619	       -1.437363
1.8875000000000e-001	    -0.003229054	        -1.58354
1.9000000000000e-001	     -0.01459095	       -1.691304
1.9125000000000e-001	     -0.03033237	       -1.767142
1.9250000000000e-001	     -0.04393399	       -1.845599
1.9375000000000e-001	     -0.05673142	       -1.893462
1.9500000000000e-001	     -0.06550128	       -1.905514
1.9625000000000e-001	     -0.07566988	       -1.900082
1.9750000000000e-001	     -0.08155801	       -1.871206
1.9875000000000e-001	     -0.08668472	       -1.815577
2.0000000000000e-001	     -0.09026098	       -1.739132
2.0125000000000e-001	     -0.08829432	       -1.641045
2.0250000000000e-001	     -0.08784001	       -1.515694
2.0375000000000e-001	     -0.08410128	       -1.371885
2.0500000000000e-001	     -0.08125098	       -1.214739
2.0625000000000e-001	     -0.07558449	       -1.045616
2.0750000000000e-001	     -0.07073377	      -0.8566251
2.0875000000000e-001	     -0.06452191	      -0.6542797
2.1000000000000e-001	     -0.05493359	      -0.4410617
2.1125000000000e-001	     -0.04853716	      -0.2465906
2.1250000000000e-001	     -0.03930799	     -0.03876818
2.1375000000000e-001	      -0.0306498	       0.1806474
2.1500000000000e-001	     -0.01968821	       0.3863858
2.1625000000000e-001	     -0.01020936	       0.6029318
2.1750000000000e-001	     0.001639176	       0.7941115
2.1875000000000e-001	      0.01144433	       0.9796889
2.2000000000000e-001	      0.02106507	        1.158728
2.2125000000000e-001	      0.03379606	        1.331788
2.2250000000000e-001	      0.04313593	        1.479652
2.2375000000000e-001	       0.0542935	        1.599306
2.2500000000000e-001	      0.06162778	        1.714648
2.2625000000000e-001	       0.0713743	         1.80908
2.2750000000000e-001	      0.07812213	        1.874378
2.2875000000000e-001	      0.08407326	        1.921052
2.3000000000000e-001	      0.09701045	        1.931604
2.3125000000000e-001	       0.1021076	        1.927993
2.3250000000000e-001	       0.1082818	        1.902813
2.3375000000000e-001	       0.1134507	        1.844295
2.3500000000000e-001	       0.1186811	        1.765424
2.3625000000000e-001	        0.121732	        1.662315
2.3750000000000e-001	       0.1245884	        1.545312
2.3875000000000e-001	       0.1224779	        1.403378
2.4000000000000e-001	       0.1246036	        1.250652
2.4125000000000e-001	       0.1267495	        1.076453
2.4250000000000e-001	       0.1231875	       0.8893205
2.4375000000000e-001	        0.121283	       0.6945178
2.4500000000000e-001	       0.1155634	       0.5023684
2.4625000000000e-001	       0.1105357	       0.2926297
2.4750000000000e-001	       0.1009317	      0.06568464
2.4875000000000e-001	      0.09090909	      -0.1443147
2.5000000000000e-001	      0.08679581	      -0.3748102
2.5125000000000e-001	      0.07557875	      -0.5883493
2.5250000000000e-001	       0.0646734	      -0.7882527
2.5375000000000e-001	       0.0529916	      -0.9887235
2.5500000000000e-001	      0.04224895	       -1.168323
2.5625000000000e-001	       0.0285203	       -1.309042
2.5750000000000e-001	      0.01633194	       -1.454164
2.5875000000000e-001	     0.001462179	        -1.58932
2.6000000000000e-001	     -0.01295733	       -1.711931
2.6125000000000e-001	     -0.02390475	       -1.792355
2.6250000000000e-001	     -0.03748604	       -1.860846
2.6375000000000e-001	     -0.04910668	       -1.899599
2.6500000000000e-001	     -0.06200378	       -1.910183
2.6625000000000e-001	     -0.07095176	       -1.912253
2.6750000000000e-001	     -0.08084882	       -1.885861
2.6875000000000e-001	       -0.088182	         -1.8323
2.7000000000000e-001	     -0.08975425	       -1.759184
2.7125000000000e-001	     -0.09323029	        -1.65428
2.7250000000000e-001	     -0.09259816	       -1.541013
2.7375000000000e-001	     -0.09009299	       -1.411821
2.7500000000000e-001	     -0.08367634	        -1.25854
2.7625000000000e-001	      -0.0785413	       -1.081222
2.7750000000000e-001	     -0.06981872	      -0.9010965
2.7875000000000e-001	     -0.06269226	      -0.6998987
2.8000000000000e-001	     -0.05591284	      -0.4929341
2.8125000000000e-001	     -0.04399026	      -0.2773578
2.8250000000000e-001	     -0.03513331	      -0.0657681
2.8375000000000e-001	     -0.02471341	       0.1453299
2.8500000000000e-001	     -0.01727135	       0.3584703
2.8625000000000e-001	     -0.00775921	       0.5684354
2.8750000000000e-001	    -0.000136178	       0.7752665
2.8875000000000e-001	     0.007200263	       0.9740527
2.9000000000000e-001	      0.01902505	         1.16437
2.9125000000000e-001	      0.02677803	        1.329853
2.9250000000000e-001	      0.03601358	        1.478134
2.9375000000000e-001	      0.04561005	        1.615911
2.9500000000000e-001	      0.05677896	        1.734026
2.9625000000000e-001	      0.06559736	        1.818224
2.9750000000000e-001	      0.07680951	        1.892125
2.9875000000000e-001	      0.08549412	        1.940863
3.0000000000000e-001	      0.09558417	         1.95687
3.0125000000000e-001	       0.1065448	        1.962229
3.0250000000000e-001	        0.112525	        1.952405
3.0375000000000e-001	       0.1186849	          1.9002
3.0500000000000e-001	       0.1203542	         1.80283
3.0625000000000e-001	       0.1235878	        1.711424
3.0750000000000e-001	        0.121523	        1.603216
3.0875000000000e-001	       0.1189023	        1.472245
3.1000000000000e-001	       0.1239101	        1.333855
3.1125000000000e-001	       0.1196796	        1.165266
3.1250000000000e-001	       0.1172026	       0.9701603
3.1375000000000e-001	       0.1144446	       0.7701641
3.1500000000000e-001	       0.1124734	       0.5644762
3.1625000000000e-001	       0.1079268	       0.3632182
3.1750000000000e-001	       0.1036771	       0.1473956
3.1875000000000e-001	      0.09535848	     -0.06077338
3.2000000000000e-001	      0.08892033	      -0.2741413
3.2125000000000e-001	      0.08215178	      -0.4827218
3.2250000000000e-001	      0.07103186	      -0.6933915
3.2375000000000e-001	      0.06112082	      -0.8917077
3.2500000000000e-001	      0.04734189	       -1.077828
3.2625000000000e-001	      0.03282449	       -1.247145
3.2750000000000e-001	      0.01737095	       -1.386871
3.2875000000000e-001	     0.001326305	       -1.509827
3.3000000000000e-001	     -0.01073345	       -1.627027
3.3125000000000e-001	     -0.02624788	       -1.737148
3.3250000000000e-001	     -0.04003949	       -1.809059
3.3375000000000e-001	      -0.0529847	        -1.85453
3.3500000000000e-001	       -0.062605	       -1.878794
3.3625000000000e-001	      -0.0726503	       -1.876078
3.3750000000000e-001	     -0.07848012	       -1.842939
3.3875000000000e-001	     -0.08452796	       -1.787682
3.4000000000000e-001	     -0.08842141	       -1.719866
3.4125000000000e-001	      -0.0863713	       -1.637735
3.4250000000000e-001	     -0.08615093	       -1.518936
3.4375000000000e-001	     -0.08409352	       -1.355544
3.4500000000000e-001	     -0.08163255	       -1.219002
3.4625000000000e-001	     -0.07704708	       -1.057415
3.4750000000000e-001	     -0.07216152	      -0.8709123
3.4875000000000e-001	     -0.06654698	      -0.6720198
3.5000000000000e-001	     -0.05629169	      -0.4667164
3.5125000000000e-001	     -0.04997339	      -0.2624111
3.5250000000000e-001	     -0.04206449	     -0.04625472
3.5375000000000e-001	     -0.03332253	       0.1642014
3.5500000000000e-001	     -0.02248306	       0.3803311
3.5625000000000e-001	     -0.01313481	       0.5863263
3.5750000000000e-001	    -0.002014067	       0.7902558
3.5875000000000e-001	      0.00790942	        1.000969
3.6000000000000e-001	      0.01707885	        1.176527
3.6125000000000e-001	      0.02914573	        1.344295
3.6250000000000e-001	      0.03775302	        1.498527
3.6375000000000e-001	      0.04817953	        1.641758
3.6500000000000e-001	      0.05607504	         1.75388
3.6625000000000e-001	      0.06530646	         1.85403
3.6750000000000e-001	      0.07323681	        1.918029
3.6875000000000e-001	      0.07911967	        1.969286
3.7000000000000e-001	      0.09107481	         1.99928
3.7125000000000e-001	      0.09693097	        1.999855
3.7250000000000e-001	       0.1038599	        1.993234
3.7375000000000e-001	       0.1094873	        1.943005
3.7500000000000e-001	       0.1160722	        1.879551
3.7625000000000e-001	       0.1193615	        1.788565
3.7750000000000e-001	       0.1227239	        1.674367
3.7875000000000e-001	       0.1211786	        1.538749
3.8000000000000e-001	       0.1236048	        1.389987
3.8125000000000e-001	       0.1264448	        1.220787
3.8250000000000e-001	       0.1242576	        1.044777
3.8375000000000e-001	       0.1228467	       0.8531486
3.8500000000000e-001	       0.1172989	       0.6366582
3.8625000000000e-001	       0.1137675	       0.4368346
3.8750000000000e-001	       0.1053738	       0.2326211
3.8875000000000e-001	      0.09571658	      0.01135209
3.9000000000000e-001	      0.09222824	      -0.2006905
3.9125000000000e-001	      0.08165825	      -0.4122619
3.9250000000000e-001	      0.07095478	       -0.612152
3.9375000000000e-001	      0.05864145	      -0.8068652
3.9500000000000e-001	       0.0488097	      -0.9943495
3.9625000000000e-001	      0.03497009	       -1.166227
3.9750000000000e-001	      0.02290967	       -1.330729
3.9875000000000e-001	     0.008730317	       -1.455044
4.0000000000000e-001	    -0.005186685	       -1.567798
4.0125000000000e-001	     -0.01715715	       -1.671241
4.0250000000000e-001	     -0.03100722	       -1.747068
4.0375000000000e-001	     -0.04319116	       -1.811434
4.0500000000000e-001	      -0.0570787	        -1.83386
4.0625000000000e-001	     -0.06692212	       -1.833727
4.0750000000000e-001	     -0.07811155	       -1.801224
4.0875000000000e-001	     -0.08604233	       -1.751534
4.1000000000000e-001	      -0.0876269	       -1.699906
4.1125000000000e-001	      -0.0928772	        -1.60899
4.1250000000000e-001	     -0.09279116	       -1.491481
4.1375000000000e-001	     -0.09184681	       -1.366608
4.1500000000000e-001	     -0.08629216	       -1.220115
4.1625000000000e-001	     -0.08148681	       -1.043473
4.1750000000000e-001	     -0.07263604	      -0.8498404
4.1875000000000e-001	     -0.06567394	      -0.6605584
4.2000000000000e-001	     -0.05941834	      -0.4670049
4.2125000000000e-001	       -0.048197	      -0.2549735
4.2250000000000e-001	     -0.03989831	     -0.04195136
4.2375000000000e-001	     -0.02991153	       0.1703235
4.2500000000000e-001	     -0.02274464	       0.4004572
4.2625000000000e-001	     -0.01315017	       0.6022521
4.2750000000000e-001	    -0.005908509	       0.8063683
4.2875000000000e-001	     0.001545115	        0.999913
4.3000000000000e-001	      0.01286863	        1.168644
4.3125000000000e-001	      0.02069507	        1.337274
4.3250000000000e-001	      0.03012562	         1.49409
4.3375000000000e-001	      0.03923662	        1.629059
4.3500000000000e-001	       0.0508996	        1.744508
4.3625000000000e-001	      0.06116838	        1.828949
4.3750000000000e-001	      0.07294532	         1.91647
4.3875000000000e-001	      0.08107838	        1.987059
4.4000000000000e-001	      0.09120126	        2.000344
4.4125000000000e-001	       0.1026805	        2.012949
4.4250000000000e-001	       0.1089588	        1.995374
4.4375000000000e-001	       0.1160613	        1.951289
4.4500000000000e-001	       0.1187577	        1.878355
4.4625000000000e-001	        0.122335	         1.79609
4.4750000000000e-001	       0.1225992	        1.683113
4.4875000000000e-001	       0.1201251	        1.549848
