Data written for 2 signals in a group signal
Ref Chan:Resp Chan	 0-Z:0-Z	 0-Z:0-Z
Channel Names	I1	I2
Channel Comments		

   	 X1	 X2
Time	 Real	Real
   	EU	EU

Units:
sec	N	m/s²
0.0000000000000e+000	      0.03208504	        1.600426
1.2500000000000e-003	      0.04210502	        1.759264
2.5000000000000e-003	      0.05432752	        1.903608
3.7500000000000e-003	      0.06562607	         2.01329
5.0000000000000e-003	      0.07772011	        2.100794
6.2500000000000e-003	      0.08813226	        2.152951
7.5000000000000e-003	      0.09769393	        2.183982
8.7500000000000e-003	       0.1110954	        2.207532
1.0000000000000e-002	        0.118682	        2.179582
1.1250000000000e-002	       0.1262947	        2.150246
1.2500000000000e-002	       0.1310062	        2.093803
1.3750000000000e-002	       0.1340805	        2.009139
1.5000000000000e-002	       0.1349994	        1.889942
1.6250000000000e-002	       0.1299971	        1.757948
1.7500000000000e-002	       0.1355601	        1.600034
1.8750000000000e-002	       0.1335284	        1.422085
2.0000000000000e-002	       0.1319975	        1.224319
2.1250000000000e-002	       0.1289195	          1.0185
2.2500000000000e-002	       0.1263023	        0.794147
2.3750000000000e-002	       0.1225484	       0.5560125
2.5000000000000e-002	       0.1166774	       0.3335354
2.6250000000000e-002	       0.1095886	      0.09364078
2.7500000000000e-002	       0.1011665	      -0.1409392
2.8750000000000e-002	      0.09514481	      -0.3743137
3.0000000000000e-002	      0.08452101	      -0.6064318
3.1250000000000e-002	      0.07193894	      -0.8338149
3.2500000000000e-002	      0.05714985	       -1.043914
3.3750000000000e-002	      0.04174488	        -1.24545
3.5000000000000e-002	      0.02489282	       -1.410677
3.6250000000000e-002	     0.005242795	       -1.567053
3.7500000000000e-002	    -0.008654088	       -1.696831
3.8750000000000e-002	     -0.02536257	       -1.830094
4.0000000000000e-002	     -0.04219988	       -1.923787
4.1250000000000e-002	     -0.05763426	       -1.983859
4.2500000000000e-002	     -0.07027158	       -2.022372
4.3750000000000e-002	     -0.08165671	       -2.052249
4.5000000000000e-002	     -0.09010178	       -2.016978
4.6250000000000e-002	      -0.0961889	       -1.963001
4.7500000000000e-002	      -0.1035398	       -1.908189
4.8750000000000e-002	      -0.1027121	       -1.809942
5.0000000000000e-002	      -0.1030057	       -1.707836
5.1250000000000e-002	      -0.1010043	       -1.565036
5.2500000000000e-002	     -0.09815844	       -1.396936
5.3750000000000e-002	     -0.09360087	       -1.206962
5.5000000000000e-002	     -0.08739911	       -1.023072
5.6250000000000e-002	     -0.08273437	      -0.8255504
5.7500000000000e-002	     -0.07169801	      -0.6128622
5.8750000000000e-002	     -0.06311755	      -0.3822492
6.0000000000000e-002	     -0.05463115	      -0.1509687
6.1250000000000e-002	     -0.04461708	      0.07053954
6.2500000000000e-002	     -0.03251843	       0.3070404
6.3750000000000e-002	     -0.02077107	       0.5432055
6.5000000000000e-002	    -0.009089079	       0.7791153
6.6250000000000e-002	     0.002494417	       0.9976088
6.7500000000000e-002	      0.01231511	        1.209434
6.8750000000000e-002	      0.02678823	        1.407245
7.0000000000000e-002	      0.03717436	        1.579576
7.1250000000000e-002	      0.04842729	        1.744891
7.2500000000000e-002	      0.05789396	        1.889578
7.3750000000000e-002	      0.06745835	        1.991936
7.5000000000000e-002	      0.07665563	        2.073594
7.6250000000000e-002	      0.08280775	        2.148781
7.7500000000000e-002	      0.09637774	         2.18562
7.8750000000000e-002	       0.1054309	         2.20605
8.0000000000000e-002	       0.1125773	        2.196064
8.1250000000000e-002	       0.1188188	        2.164645
8.2500000000000e-002	       0.1251864	        2.100958
8.3750000000000e-002	       0.1293875	        2.011716
8.5000000000000e-002	       0.1328786	        1.897434
8.6250000000000e-002	       0.1323972	        1.759628
8.7500000000000e-002	       0.1324635	        1.606046
8.8750000000000e-002	       0.1363814	        1.433975
9.0000000000000e-002	        0.134393	        1.250266
9.1250000000000e-002	       0.1327535	        1.052155
9.2500000000000e-002	       0.1281377	       0.8386271
9.3750000000000e-002	       0.1230918	        0.614397
9.5000000000000e-002	       0.1160648	       0.3843391
9.6250000000000e-002	       0.1047919	       0.1360664
9.7500000000000e-002	       0.1011994	     -0.09759812
9.8750000000000e-002	      0.09090677	      -0.3256545
1.0000000000000e-001	      0.07998651	       -0.557194
1.0125000000000e-001	       0.0668741	      -0.7783104
1.0250000000000e-001	       0.0549843	      -0.9938269
1.0375000000000e-001	      0.04135602	       -1.186508
1.0500000000000e-001	      0.02644639	       -1.373344
1.0625000000000e-001	      0.01166455	       -1.541663
1.0750000000000e-001	    -0.005783286	       -1.683422
1.0875000000000e-001	     -0.01915791	       -1.796488
1.1000000000000e-001	     -0.03512721	       -1.897191
1.1125000000000e-001	     -0.04911705	       -1.959076
1.1250000000000e-001	     -0.06403703	       -1.994847
1.1375000000000e-001	     -0.07703728	       -2.018704
1.1500000000000e-001	     -0.08785094	       -2.006809
1.1625000000000e-001	     -0.09834154	       -1.986852
1.1750000000000e-001	      -0.1013054	       -1.922102
1.1875000000000e-001	      -0.1059902	       -1.830015
1.2000000000000e-001	      -0.1065496	       -1.707623
1.2125000000000e-001	      -0.1055899	       -1.570624
1.2250000000000e-001	      -0.1005674	       -1.421615
1.2375000000000e-001	     -0.09506326	       -1.250436
1.2500000000000e-001	     -0.08758024	       -1.043179
1.2625000000000e-001	     -0.07858733	      -0.8352786
1.2750000000000e-001	     -0.07241676	      -0.6385138
1.2875000000000e-001	     -0.05977204	      -0.4144421
1.3000000000000e-001	     -0.04996965	      -0.1849413
1.3125000000000e-001	     -0.03898541	      0.05430461
1.3250000000000e-001	     -0.03040553	       0.3000538
1.3375000000000e-001	     -0.02082493	       0.5221788
1.3500000000000e-001	     -0.01001142	       0.7591451
1.3625000000000e-001	    -0.002846803	       0.9757261
1.3750000000000e-001	     0.009090963	        1.172926
1.3875000000000e-001	      0.01913562	        1.379867
1.4000000000000e-001	      0.02852822	        1.563945
1.4125000000000e-001	       0.0388866	        1.731529
1.4250000000000e-001	      0.05078647	        1.863763
1.4375000000000e-001	      0.06149496	         1.97946
1.4500000000000e-001	      0.07306656	        2.076495
1.4625000000000e-001	      0.08410256	        2.152965
1.4750000000000e-001	      0.09361367	        2.197679
1.4875000000000e-001	       0.1070645	        2.204054
1.5000000000000e-001	       0.1150589	        2.197677
1.5125000000000e-001	       0.1221981	        2.154204
1.5250000000000e-001	       0.1271304	        2.092443
1.5375000000000e-001	       0.1303508	        2.013103
1.5500000000000e-001	       0.1317778	        1.922187
1.5625000000000e-001	       0.1270932	        1.784607
1.5750000000000e-001	       0.1325983	        1.625424
1.5875000000000e-001	       0.1311439	         1.45823
1.6000000000000e-001	       0.1282681	        1.272281
1.6125000000000e-001	       0.1256234	        1.069393
1.6250000000000e-001	       0.1242893	       0.8497782
1.6375000000000e-001	       0.1215548	       0.6272176
1.6500000000000e-001	       0.1163714	       0.3870501
1.6625000000000e-001	       0.1093228	       0.1529213
1.6750000000000e-001	       0.1017898	     -0.07699663
1.6875000000000e-001	       0.0958997	      -0.3236052
1.7000000000000e-001	      0.08675496	      -0.5573427
1.7125000000000e-001	      0.07478887	      -0.7859971
1.7250000000000e-001	      0.06087448	      -0.9891612
1.7375000000000e-001	       0.0460403	       -1.177819
1.7500000000000e-001	       0.0301576	       -1.357653
1.7625000000000e-001	      0.01050673	       -1.516714
1.7750000000000e-001	    -0.002939835	       -1.660816
1.7875000000000e-001	     -0.01975661	       -1.782329
1.8000000000000e-001	     -0.03637965	       -1.880215
1.8125000000000e-001	     -0.05161225	       -1.950955
1.8250000000000e-001	     -0.06517606	       -2.001045
1.8375000000000e-001	     -0.07710994	       -2.031969
1.8500000000000e-001	     -0.08647137	       -2.014387
1.8625000000000e-001	     -0.09310826	       -1.986019
1.8750000000000e-001	      -0.1008367	       -1.934817
1.8875000000000e-001	      -0.1005744	       -1.841543
1.9000000000000e-001	      -0.1012604	       -1.730694
1.9125000000000e-001	      -0.1001923	       -1.597411
1.9250000000000e-001	     -0.09847544	       -1.432624
1.9375000000000e-001	     -0.09474426	        -1.28127
1.9500000000000e-001	     -0.08832693	       -1.105421
1.9625000000000e-001	     -0.08344675	      -0.9019964
1.9750000000000e-001	      -0.0732772	      -0.6808861
1.9875000000000e-001	     -0.06543605	       -0.451008
2.0000000000000e-001	     -0.05650286	       -0.223377
2.0125000000000e-001	     -0.04667253	     0.009531059
2.0250000000000e-001	     -0.03565828	       0.2613451
2.0375000000000e-001	     -0.02443297	       0.4990194
2.0500000000000e-001	     -0.01207825	       0.7198676
2.0625000000000e-001	   -0.0001609095	       0.9440144
2.0750000000000e-001	     0.009203366	         1.14282
2.0875000000000e-001	      0.02244563	        1.337976
2.1000000000000e-001	      0.03251482	        1.516111
2.1125000000000e-001	      0.04400548	        1.673088
2.1250000000000e-001	      0.05368814	        1.809196
2.1375000000000e-001	       0.0635428	        1.932091
2.1500000000000e-001	      0.07363643	        2.033828
2.1625000000000e-001	       0.0796448	        2.106274
2.1750000000000e-001	      0.09323711	        2.159811
2.1875000000000e-001	       0.1020371	        2.170125
2.2000000000000e-001	       0.1098712	        2.175529
2.2125000000000e-001	       0.1161468	        2.152605
2.2250000000000e-001	       0.1234877	        2.099893
2.2375000000000e-001	       0.1287599	        2.021578
2.2500000000000e-001	       0.1321604	        1.914469
2.2625000000000e-001	       0.1330783	         1.79516
2.2750000000000e-001	       0.1332969	        1.633746
2.2875000000000e-001	       0.1371169	        1.468824
2.3000000000000e-001	       0.1359588	        1.280405
2.3125000000000e-001	       0.1342534	         1.08118
2.3250000000000e-001	       0.1300522	       0.8601987
2.3375000000000e-001	       0.1258367	       0.6300317
2.3500000000000e-001	       0.1192674	       0.4009158
2.3625000000000e-001	       0.1074987	       0.1728643
2.3750000000000e-001	       0.1045699	     -0.06302354
2.3875000000000e-001	      0.09397646	      -0.2931536
2.4000000000000e-001	      0.08328784	       -0.517137
2.4125000000000e-001	      0.07070588	      -0.7404326
2.4250000000000e-001	      0.05856696	      -0.9522842
2.4375000000000e-001	      0.04564466	       -1.155306
2.4500000000000e-001	      0.03107801	       -1.356522
2.4625000000000e-001	      0.01572125	       -1.519496
2.4750000000000e-001	      -0.0017108	       -1.651799
2.4875000000000e-001	     -0.01427786	       -1.776764
2.5000000000000e-001	      -0.0297288	       -1.878863
2.5125000000000e-001	     -0.04498775	       -1.954532
2.5250000000000e-001	     -0.05996998	       -1.996569
2.5375000000000e-001	     -0.07387587	       -2.035055
2.5500000000000e-001	     -0.08538364	       -2.049172
2.5625000000000e-001	     -0.09739238	       -2.024638
2.5750000000000e-001	      -0.1005546	       -1.966415
2.5875000000000e-001	      -0.1056667	       -1.884422
2.6000000000000e-001	      -0.1077543	       -1.778997
2.6125000000000e-001	       -0.106364	       -1.665391
2.6250000000000e-001	      -0.1024076	        -1.50495
2.6375000000000e-001	     -0.09663214	       -1.337318
2.6500000000000e-001	      -0.0894602	       -1.161258
2.6625000000000e-001	     -0.08112868	       -0.944536
2.6750000000000e-001	     -0.07536971	      -0.7477441
2.6875000000000e-001	     -0.06216954	      -0.5293509
2.7000000000000e-001	      -0.0527034	      -0.2910908
2.7125000000000e-001	     -0.04178912	     -0.05704327
2.7250000000000e-001	     -0.03286314	       0.1701088
2.7375000000000e-001	      -0.0233033	       0.4034376
2.7500000000000e-001	     -0.01305846	        0.631669
2.7625000000000e-001	    -0.005715155	       0.8571211
2.7750000000000e-001	     0.007430464	        1.064656
2.7875000000000e-001	      0.01731823	        1.266577
2.8000000000000e-001	       0.0269213	        1.451878
2.8125000000000e-001	      0.03665981	        1.616021
2.8250000000000e-001	      0.04787146	        1.760128
2.8375000000000e-001	      0.05858448	         1.89349
2.8500000000000e-001	      0.06985905	        1.993013
2.8625000000000e-001	      0.08087694	        2.076506
2.8750000000000e-001	      0.09057989	        2.136679
2.8875000000000e-001	       0.1031506	        2.158609
2.9000000000000e-001	       0.1119994	        2.160299
2.9125000000000e-001	       0.1201696	        2.126037
2.9250000000000e-001	       0.1250249	        2.080963
2.9375000000000e-001	       0.1286915	        2.006472
2.9500000000000e-001	       0.1313878	        1.907399
2.9625000000000e-001	       0.1276024	        1.777454
2.9750000000000e-001	       0.1325893	        1.630994
2.9875000000000e-001	       0.1313326	        1.453542
3.0000000000000e-001	       0.1291439	        1.269387
3.0125000000000e-001	       0.1281737	        1.068213
3.0250000000000e-001	       0.1262814	       0.8613199
3.0375000000000e-001	       0.1236835	       0.6407524
3.0500000000000e-001	       0.1191761	       0.4075329
3.0625000000000e-001	       0.1123682	        0.172059
3.0750000000000e-001	       0.1054223	     -0.06471052
3.0875000000000e-001	      0.09886447	      -0.2993837
3.1000000000000e-001	       0.0894169	      -0.5381629
3.1125000000000e-001	      0.07861589	      -0.7540093
3.1250000000000e-001	      0.06465276	      -0.9713048
3.1375000000000e-001	      0.05040463	       -1.168817
3.1500000000000e-001	      0.03427573	       -1.368761
3.1625000000000e-001	      0.01416646	       -1.548563
3.1750000000000e-001	    0.0009856692	       -1.692899
3.1875000000000e-001	     -0.01630938	       -1.834253
3.2000000000000e-001	     -0.03331057	       -1.926886
3.2125000000000e-001	     -0.04889561	       -2.001327
3.2250000000000e-001	     -0.06144112	       -2.066156
3.2375000000000e-001	     -0.07416566	       -2.079173
3.2500000000000e-001	     -0.08470232	       -2.070652
3.2625000000000e-001	     -0.09228693	       -2.055132
3.2750000000000e-001	      -0.1008297	        -2.01854
3.2875000000000e-001	      -0.1008666	       -1.938174
3.3000000000000e-001	      -0.1019451	       -1.847279
3.3125000000000e-001	      -0.1003449	        -1.72216
3.3250000000000e-001	      -0.0981056	       -1.577921
3.3375000000000e-001	     -0.09483164	       -1.416559
3.3500000000000e-001	     -0.08971741	       -1.226818
3.3625000000000e-001	     -0.08570009	        -1.01667
3.3750000000000e-001	     -0.07490772	      -0.8093796
3.3875000000000e-001	     -0.06696528	       -0.592347
3.4000000000000e-001	     -0.05810899	      -0.3443946
3.4125000000000e-001	     -0.04819106	       -0.107764
3.4250000000000e-001	     -0.03657341	       0.1304656
3.4375000000000e-001	     -0.02525223	       0.3742286
3.4500000000000e-001	     -0.01363996	       0.5978369
3.4625000000000e-001	    -0.001679891	       0.8310301
3.4750000000000e-001	     0.006824789	        1.040222
3.4875000000000e-001	      0.02034347	        1.238135
3.5000000000000e-001	      0.03023498	        1.425848
3.5125000000000e-001	      0.04078218	        1.591865
3.5250000000000e-001	       0.0504933	        1.741328
3.5375000000000e-001	      0.05975362	        1.856424
3.5500000000000e-001	       0.0705555	        1.954504
3.5625000000000e-001	      0.07598132	        2.046546
3.5750000000000e-001	      0.08972209	        2.099828
3.5875000000000e-001	       0.0982795	        2.120296
3.6000000000000e-001	       0.1061186	        2.134828
3.6125000000000e-001	       0.1134861	        2.117696
3.6250000000000e-001	       0.1207683	        2.070539
3.6375000000000e-001	       0.1266326	         1.99392
3.6500000000000e-001	       0.1304934	        1.886401
3.6625000000000e-001	       0.1320339	        1.781645
3.6750000000000e-001	       0.1318804	        1.628219
3.6875000000000e-001	       0.1363765	        1.463294
3.7000000000000e-001	       0.1350933	        1.285836
3.7125000000000e-001	       0.1340399	        1.078173
3.7250000000000e-001	       0.1297222	       0.8802824
3.7375000000000e-001	        0.126117	       0.6639215
3.7500000000000e-001	       0.1205535	       0.4223914
3.7625000000000e-001	        0.108547	       0.1719215
3.7750000000000e-001	       0.1066637	     -0.05627023
3.7875000000000e-001	      0.09699123	      -0.2804318
3.8000000000000e-001	      0.08687211	      -0.5179889
3.8125000000000e-001	       0.0753221	      -0.7400721
3.8250000000000e-001	      0.06343844	      -0.9462407
3.8375000000000e-001	      0.05058406	       -1.153553
3.8500000000000e-001	      0.03657489	        -1.33405
3.8625000000000e-001	      0.02153516	       -1.513722
3.8750000000000e-001	     0.004775954	       -1.657784
3.8875000000000e-001	    -0.008225093	       -1.801783
3.9000000000000e-001	     -0.02438002	       -1.916737
3.9125000000000e-001	     -0.03875659	       -2.005128
3.9250000000000e-001	     -0.05384925	       -2.060294
3.9375000000000e-001	     -0.06834802	       -2.087084
3.9500000000000e-001	     -0.08017651	       -2.082427
3.9625000000000e-001	     -0.09280832	       -2.076497
3.9750000000000e-001	     -0.09729105	       -2.028104
3.9875000000000e-001	      -0.1031894	       -1.953276
4.0000000000000e-001	      -0.1059944	       -1.846424
4.0125000000000e-001	       -0.106097	       -1.722295
4.0250000000000e-001	      -0.1029595	       -1.584631
4.0375000000000e-001	     -0.09749256	       -1.410532
4.0500000000000e-001	     -0.09066304	       -1.226456
4.0625000000000e-001	     -0.08217154	       -1.032131
4.0750000000000e-001	     -0.07694319	      -0.8290539
4.0875000000000e-001	     -0.06529866	      -0.6031354
4.1000000000000e-001	     -0.05547905	      -0.3782469
4.1125000000000e-001	     -0.04496758	      -0.1564832
4.1250000000000e-001	     -0.03573647	      0.08601651
4.1375000000000e-001	     -0.02614952	       0.3353128
4.1500000000000e-001	     -0.01643987	       0.5677367
4.1625000000000e-001	     -0.00929546	       0.7960102
4.1750000000000e-001	     0.003011628	        1.008444
4.1875000000000e-001	       0.0127044	        1.208064
4.2000000000000e-001	      0.02266278	        1.405178
4.2125000000000e-001	      0.03182615	        1.582041
4.2250000000000e-001	      0.04332563	        1.730311
4.2375000000000e-001	      0.05441735	        1.868323
4.2500000000000e-001	      0.06592642	        1.982198
4.2625000000000e-001	      0.07700395	        2.062327
4.2750000000000e-001	      0.08655829	         2.13043
4.2875000000000e-001	       0.1002941	         2.17778
4.3000000000000e-001	       0.1096465	        2.182849
4.3125000000000e-001	       0.1176527	        2.157998
4.3250000000000e-001	       0.1225465	        2.110712
4.3375000000000e-001	       0.1262312	        2.031663
4.3500000000000e-001	       0.1291786	        1.947083
4.3625000000000e-001	       0.1255394	         1.81098
4.3750000000000e-001	       0.1311933	        1.674918
4.3875000000000e-001	       0.1318708	        1.522934
4.4000000000000e-001	       0.1303574	        1.341662
4.4125000000000e-001	       0.1278758	        1.144272
4.4250000000000e-001	       0.1264046	       0.9379315
4.4375000000000e-001	       0.1244009	       0.7009715
4.4500000000000e-001	       0.1203208	       0.4660454
4.4625000000000e-001	        0.113697	       0.2348933
4.4750000000000e-001	       0.1072735	     0.006824227
4.4875000000000e-001	       0.1019584	      -0.2266582
