Data written for 2 signals in a group signal
Ref Chan:Resp Chan	 0-Z:0-Z	 0-Z:0-Z
Channel Names	I1	I2
Channel Comments		

   	 X1	 X2
Time	 Real	Real
   	EU	EU

Units:
sec	N	m/s²
0.0000000000000e+000	       -1.236976	        -3.13921
1.2500000000000e-003	       -1.209787	       -3.032606
2.5000000000000e-003	       -1.168406	       -2.872601
3.7500000000000e-003	       -1.110794	       -2.693737
5.0000000000000e-003	       -1.036516	        -2.46724
6.2500000000000e-003	      -0.9468727	       -2.211909
7.5000000000000e-003	      -0.8456255	       -1.923715
8.7500000000000e-003	       -0.733217	        -1.61291
1.0000000000000e-002	      -0.6104149	       -1.270806
1.1250000000000e-002	      -0.4847343	      -0.9102485
1.2500000000000e-002	      -0.3476787	      -0.5517862
1.3750000000000e-002	      -0.2091301	      -0.1725832
1.5000000000000e-002	     -0.06891802	       0.2144133
1.6250000000000e-002	      0.07137529	        0.579201
1.7500000000000e-002	       0.2099391	       0.9380096
1.8750000000000e-002	       0.3465139	        1.298201
2.0000000000000e-002	       0.4750557	        1.635659
2.1250000000000e-002	       0.6033287	        1.944384
2.2500000000000e-002	       0.7221332	        2.231968
2.3750000000000e-002	       0.8312637	        2.508151
2.5000000000000e-002	       0.9317407	        2.743318
2.6250000000000e-002	        1.021304	         2.93607
2.7500000000000e-002	        1.098349	        3.096142
2.8750000000000e-002	        1.162846	        3.231097
3.0000000000000e-002	        1.212056	        3.315395
3.1250000000000e-002	        1.245016	          3.3617
3.2500000000000e-002	        1.266737	        3.361307
3.3750000000000e-002	        1.267485	        3.307946
3.5000000000000e-002	        1.251396	        3.232632
3.6250000000000e-002	         1.21861	        3.034027
3.7500000000000e-002	        1.167139	        2.925369
3.8750000000000e-002	        1.102879	        2.734406
4.0000000000000e-002	        1.019032	        2.482685
4.1250000000000e-002	        0.934886	        2.222176
4.2500000000000e-002	       0.8347566	        1.934895
4.3750000000000e-002	       0.7231482	        1.597338
4.5000000000000e-002	       0.6060419	        1.260133
4.6250000000000e-002	       0.4826765	       0.9115645
4.7500000000000e-002	       0.3540126	       0.5524163
4.8750000000000e-002	        0.220695	        0.185893
5.0000000000000e-002	      0.08438886	      -0.1957043
5.1250000000000e-002	     -0.05398852	      -0.5577497
5.2500000000000e-002	      -0.1872357	      -0.9220214
5.3750000000000e-002	      -0.3221147	       -1.263289
5.5000000000000e-002	      -0.4534669	       -1.597958
5.6250000000000e-002	      -0.5805827	        -1.91491
5.7500000000000e-002	      -0.7012864	       -2.207276
5.8750000000000e-002	      -0.8134882	        -2.45815
6.0000000000000e-002	      -0.9196688	       -2.678876
6.1250000000000e-002	        -1.00693	       -2.891672
6.2500000000000e-002	       -1.084872	       -3.045738
6.3750000000000e-002	       -1.149014	       -3.135035
6.5000000000000e-002	       -1.196127	       -3.216636
6.6250000000000e-002	       -1.226568	       -3.237261
6.7500000000000e-002	       -1.239808	       -3.219233
6.8750000000000e-002	       -1.236073	       -3.163175
7.0000000000000e-002	       -1.212297	        -3.06121
7.1250000000000e-002	       -1.175117	       -2.915025
7.2500000000000e-002	       -1.115367	       -2.742647
7.3750000000000e-002	       -1.042026	        -2.52066
7.5000000000000e-002	      -0.9559497	       -2.264241
7.6250000000000e-002	      -0.8583759	        -2.01873
7.7500000000000e-002	      -0.7495198	       -1.665838
7.8750000000000e-002	      -0.6300952	        -1.33259
8.0000000000000e-002	      -0.5071389	      -0.9851912
8.1250000000000e-002	      -0.3718641	      -0.6232665
8.2500000000000e-002	      -0.2350061	      -0.2668733
8.3750000000000e-002	     -0.09647775	       0.1161436
8.5000000000000e-002	      0.04373599	       0.4867361
8.6250000000000e-002	       0.1847993	       0.8559312
8.7500000000000e-002	        0.323838	        1.209362
8.8750000000000e-002	       0.4573405	        1.548239
9.0000000000000e-002	       0.5858602	        1.876585
9.1250000000000e-002	       0.7043639	        2.186422
9.2500000000000e-002	       0.8189309	        2.463508
9.3750000000000e-002	       0.9219591	        2.709709
9.5000000000000e-002	        1.012779	        2.921282
9.6250000000000e-002	        1.090488	        3.093326
9.7500000000000e-002	         1.15482	        3.219315
9.8750000000000e-002	         1.20597	        3.316496
1.0000000000000e-001	        1.236022	        3.372939
1.0125000000000e-001	        1.258971	        3.370428
1.0250000000000e-001	        1.262588	        3.333337
1.0375000000000e-001	        1.246689	        3.257883
1.0500000000000e-001	        1.216738	        3.135391
1.0625000000000e-001	        1.171444	        2.988212
1.0750000000000e-001	        1.110201	        2.790065
1.0875000000000e-001	        1.035118	        2.558022
1.1000000000000e-001	        0.947124	        2.302537
1.1125000000000e-001	       0.8482951	          2.0046
1.1250000000000e-001	       0.7447033	        1.684936
1.1375000000000e-001	       0.6289462	        1.346537
1.1500000000000e-001	       0.5068184	       0.9747065
1.1625000000000e-001	       0.3777119	       0.5294713
1.1750000000000e-001	       0.2434768	       0.2441917
1.1875000000000e-001	       0.1080654	      -0.1345235
1.2000000000000e-001	     -0.03464784	      -0.5031605
1.2125000000000e-001	      -0.1681803	      -0.8620362
1.2250000000000e-001	      -0.3021894	       -1.209215
1.2375000000000e-001	      -0.4356928	       -1.559007
1.2500000000000e-001	      -0.5627169	       -1.880027
1.2625000000000e-001	      -0.6823902	       -2.178196
1.2750000000000e-001	      -0.7944401	       -2.429243
1.2875000000000e-001	      -0.8971555	       -2.660017
1.3000000000000e-001	      -0.9876167	        -2.86711
1.3125000000000e-001	       -1.068037	       -3.020581
1.3250000000000e-001	       -1.130545	       -3.145159
1.3375000000000e-001	       -1.180519	       -3.217558
1.3500000000000e-001	       -1.213932	        -3.25181
1.3625000000000e-001	       -1.231672	       -3.241674
1.3750000000000e-001	       -1.232645	       -3.186226
1.3875000000000e-001	       -1.214398	       -3.089463
1.4000000000000e-001	       -1.181292	       -2.961353
1.4125000000000e-001	       -1.126105	       -2.772418
1.4250000000000e-001	       -1.057581	       -2.558838
1.4375000000000e-001	       -0.975926	       -2.310271
1.4500000000000e-001	       -0.879869	       -2.030224
1.4625000000000e-001	      -0.7711487	       -1.718763
1.4750000000000e-001	       -0.652805	       -1.410797
1.4875000000000e-001	      -0.5269498	       -1.066721
1.5000000000000e-001	      -0.3932955	      -0.7062953
1.5125000000000e-001	      -0.2593479	      -0.3394735
1.5250000000000e-001	       -0.117839	      0.02457715
1.5375000000000e-001	      0.02367525	       0.3971094
1.5500000000000e-001	       0.1637231	       0.7668213
1.5625000000000e-001	       0.3012055	         1.08852
1.5750000000000e-001	       0.4337176	        1.459167
1.5875000000000e-001	       0.5610543	        1.784276
1.6000000000000e-001	         0.67845	        2.096646
1.6125000000000e-001	       0.7934912	        2.384181
1.6250000000000e-001	       0.8965632	        2.636504
1.6375000000000e-001	       0.9882745	        2.848941
1.6500000000000e-001	        1.068542	         3.02865
1.6625000000000e-001	        1.137909	        3.166402
1.6750000000000e-001	        1.192481	        3.271156
1.6875000000000e-001	         1.23159	        3.327686
1.7000000000000e-001	        1.254706	        3.346832
1.7125000000000e-001	        1.260658	        3.311228
1.7250000000000e-001	        1.254437	        3.225345
1.7375000000000e-001	        1.228149	        3.114552
1.7500000000000e-001	        1.185332	        2.961241
1.7625000000000e-001	        1.125245	        2.773976
1.7750000000000e-001	        1.050974	        2.557115
1.7875000000000e-001	       0.9662544	        2.301139
1.8000000000000e-001	       0.8641334	        2.017791
1.8125000000000e-001	       0.7619877	        1.707386
1.8250000000000e-001	       0.6479276	        1.373841
1.8375000000000e-001	       0.5237442	         1.02897
1.8500000000000e-001	       0.3965713	       0.6772113
1.8625000000000e-001	       0.2649152	       0.3207636
1.8750000000000e-001	       0.1308128	     -0.05832642
1.8875000000000e-001	    -0.005592477	      -0.4387411
1.9000000000000e-001	      -0.1427198	      -0.8060993
1.9125000000000e-001	      -0.2781241	       -1.166064
1.9250000000000e-001	      -0.4073571	       -1.506245
1.9375000000000e-001	      -0.5353946	       -1.813091
1.9500000000000e-001	      -0.6557918	       -2.109816
1.9625000000000e-001	       -0.770078	       -2.405982
1.9750000000000e-001	      -0.8764545	       -2.588937
1.9875000000000e-001	      -0.9697272	       -2.795366
2.0000000000000e-001	       -1.055747	         -2.9575
2.0125000000000e-001	       -1.121259	       -3.091768
2.0250000000000e-001	       -1.174007	       -3.184595
2.0375000000000e-001	       -1.212274	        -3.20809
2.0500000000000e-001	       -1.231955	       -3.196818
2.0625000000000e-001	       -1.234074	       -3.151943
2.0750000000000e-001	       -1.217624	       -3.063452
2.0875000000000e-001	       -1.184009	       -2.922521
2.1000000000000e-001	       -1.132395	       -2.759528
2.1125000000000e-001	       -1.068371	       -2.556826
2.1250000000000e-001	      -0.9845909	       -2.321743
2.1375000000000e-001	      -0.8901624	       -2.048904
2.1500000000000e-001	      -0.7845968	       -1.745913
2.1625000000000e-001	      -0.6689727	       -1.426407
2.1750000000000e-001	      -0.5474646	       -1.088662
2.1875000000000e-001	      -0.4183105	      -0.7180986
2.2000000000000e-001	      -0.2864019	      -0.3526785
2.2125000000000e-001	      -0.1467606	    0.0002424457
2.2250000000000e-001	    -0.007825722	       0.3742453
2.2375000000000e-001	       0.1304824	       0.7439907
2.2500000000000e-001	       0.2682261	        1.111567
2.2625000000000e-001	        0.402885	        1.456132
2.2750000000000e-001	       0.5325072	        1.793475
2.2875000000000e-001	       0.6550559	         2.09047
2.3000000000000e-001	       0.7707259	        2.371578
2.3125000000000e-001	       0.8751504	        2.630494
2.3250000000000e-001	       0.9730669	        2.845558
2.3375000000000e-001	        1.056088	        3.012049
2.3500000000000e-001	         1.12686	        3.172331
2.3625000000000e-001	        1.183295	        3.258111
2.3750000000000e-001	        1.223802	        3.356281
2.3875000000000e-001	        1.250459	        3.383347
2.4000000000000e-001	        1.254459	        3.355607
2.4125000000000e-001	        1.250585	        3.289956
2.4250000000000e-001	        1.227405	        3.169239
2.4375000000000e-001	        1.186023	        3.032419
2.4500000000000e-001	        1.129423	        2.843327
2.4625000000000e-001	        1.061182	        2.614711
2.4750000000000e-001	       0.9789347	        2.358929
2.4875000000000e-001	       0.8855785	         2.09922
2.5000000000000e-001	        0.780239	        1.777489
2.5125000000000e-001	       0.6672208	        1.453114
2.5250000000000e-001	       0.5517984	        1.114834
2.5375000000000e-001	       0.4247412	       0.7541738
2.5500000000000e-001	       0.2939772	       0.3721612
2.5625000000000e-001	       0.1596915	      0.00987895
2.5750000000000e-001	      0.02204707	      -0.3732977
2.5875000000000e-001	      -0.1158938	      -0.7411564
2.6000000000000e-001	      -0.2565986	       -1.088611
2.6125000000000e-001	      -0.3866672	       -1.438584
2.6250000000000e-001	      -0.5154117	       -1.763708
2.6375000000000e-001	      -0.6392366	       -2.061553
2.6500000000000e-001	      -0.7546585	       -2.329634
2.6625000000000e-001	      -0.8601857	       -2.554165
2.6750000000000e-001	      -0.9554685	        -2.76633
2.6875000000000e-001	       -1.039693	       -2.929405
2.7000000000000e-001	       -1.108053	       -3.052935
2.7125000000000e-001	       -1.164906	       -3.149931
2.7250000000000e-001	       -1.201848	       -3.209084
2.7375000000000e-001	       -1.222832	       -3.203847
2.7500000000000e-001	       -1.228201	       -3.154807
2.7625000000000e-001	       -1.216842	       -3.131011
2.7750000000000e-001	       -1.188823	       -2.962188
2.7875000000000e-001	       -1.141754	       -2.804972
2.8000000000000e-001	       -1.081594	       -2.611175
2.8125000000000e-001	       -1.001345	        -2.37819
2.8250000000000e-001	      -0.9100392	       -2.106579
2.8375000000000e-001	      -0.8082494	       -1.813538
2.8500000000000e-001	      -0.6943332	       -1.491627
2.8625000000000e-001	      -0.5719303	       -1.150937
2.8750000000000e-001	      -0.4418086	      -0.7925772
2.8875000000000e-001	      -0.3065511	      -0.4197037
2.9000000000000e-001	      -0.1673788	     -0.04139054
2.9125000000000e-001	     -0.03002221	       0.3443591
2.9250000000000e-001	       0.1121959	       0.6955113
2.9375000000000e-001	       0.2500967	        1.049182
2.9500000000000e-001	       0.3858938	        1.409386
2.9625000000000e-001	       0.5154064	        1.725051
2.9750000000000e-001	       0.6368759	        2.030734
2.9875000000000e-001	        0.752807	        2.324706
3.0000000000000e-001	       0.8544102	        2.576545
3.0125000000000e-001	       0.9535086	        2.811852
3.0250000000000e-001	        1.038381	        3.013695
3.0375000000000e-001	        1.109504	        3.165878
3.0500000000000e-001	        1.169242	        3.274874
3.0625000000000e-001	        1.214778	        3.347082
3.0750000000000e-001	         1.24353	        3.369848
3.0875000000000e-001	        1.257014	        3.348804
3.1000000000000e-001	        1.252239	        3.292455
3.1125000000000e-001	        1.230515	        3.191047
3.1250000000000e-001	        1.197536	        3.056708
3.1375000000000e-001	        1.144303	        2.883648
3.1500000000000e-001	        1.077643	        2.670223
3.1625000000000e-001	       0.9960495	        2.386623
3.1750000000000e-001	       0.9029269	        2.145561
3.1875000000000e-001	       0.8000252	        1.845152
3.2000000000000e-001	       0.6830702	        1.522009
3.2125000000000e-001	       0.5680913	        1.177321
3.2250000000000e-001	       0.4435756	       0.8166809
3.2375000000000e-001	       0.3113434	       0.4457345
3.2500000000000e-001	       0.1777973	      0.07852193
3.2625000000000e-001	      0.04211549	      -0.2983863
3.2750000000000e-001	     -0.09458891	      -0.6616419
3.2875000000000e-001	       -0.229955	       -1.033638
3.3000000000000e-001	      -0.3626149	       -1.386216
3.3125000000000e-001	      -0.4929668	       -1.717023
3.3250000000000e-001	      -0.6140376	       -2.001701
3.3375000000000e-001	      -0.7297629	       -2.272555
3.3500000000000e-001	      -0.8377358	       -2.515817
3.3625000000000e-001	      -0.9361216	       -2.724706
3.3750000000000e-001	       -1.023283	       -2.897817
3.3875000000000e-001	       -1.096477	       -3.029031
3.4000000000000e-001	       -1.157752	       -3.133794
3.4125000000000e-001	       -1.198108	         -3.1989
3.4250000000000e-001	       -1.223615	       -3.227855
3.4375000000000e-001	       -1.233292	       -3.194311
3.4500000000000e-001	       -1.223708	       -3.124102
3.4625000000000e-001	       -1.195229	       -3.003745
3.4750000000000e-001	       -1.149959	       -2.842707
3.4875000000000e-001	       -1.088722	       -2.657863
3.5000000000000e-001	       -1.010366	        -2.42988
3.5125000000000e-001	       -0.923652	       -2.161691
3.5250000000000e-001	      -0.8196121	       -1.862482
3.5375000000000e-001	      -0.7062366	       -1.556842
3.5500000000000e-001	      -0.5853831	       -1.238478
3.5625000000000e-001	      -0.4580992	      -0.9245531
3.5750000000000e-001	      -0.3263909	       -0.515546
3.5875000000000e-001	      -0.1897191	      -0.1380947
3.6000000000000e-001	     -0.05415119	       0.2429647
3.6125000000000e-001	      0.08729916	       0.6159315
3.6250000000000e-001	       0.2249139	       0.9695342
3.6375000000000e-001	        0.359357	        1.325312
3.6500000000000e-001	       0.4892596	        1.679016
3.6625000000000e-001	       0.6141631	        1.988261
3.6750000000000e-001	        0.731895	        2.278929
3.6875000000000e-001	       0.8400805	        2.545108
3.7000000000000e-001	       0.9396634	        2.779254
3.7125000000000e-001	        1.025742	        2.971011
3.7250000000000e-001	         1.10333	        3.107119
3.7375000000000e-001	         1.16515	        3.247293
3.7500000000000e-001	          1.2123	         3.33651
3.7625000000000e-001	        1.241916	        3.366352
3.7750000000000e-001	        1.255923	         3.35183
3.7875000000000e-001	        1.254509	        3.308503
3.8000000000000e-001	         1.22926	        3.214844
3.8125000000000e-001	        1.198207	        3.084209
3.8250000000000e-001	        1.147735	        2.925974
3.8375000000000e-001	        1.080692	        2.713162
3.8500000000000e-001	        1.002361	        2.471414
3.8625000000000e-001	       0.9135578	        2.210156
3.8750000000000e-001	       0.8138542	        1.916423
3.8875000000000e-001	       0.7042465	        1.593055
3.9000000000000e-001	       0.5875309	        1.258101
3.9125000000000e-001	       0.4628444	        0.895448
3.9250000000000e-001	       0.3373154	       0.5101639
3.9375000000000e-001	       0.2042712	       0.1495085
3.9500000000000e-001	      0.07010146	      -0.2208206
3.9625000000000e-001	     -0.06761511	      -0.6081771
3.9750000000000e-001	       -0.204385	      -0.9556413
3.9875000000000e-001	      -0.3377683	       -1.307835
4.0000000000000e-001	      -0.4728029	       -1.636185
4.0125000000000e-001	      -0.5953592	       -1.937265
4.0250000000000e-001	      -0.7124438	       -2.218607
4.0375000000000e-001	      -0.8230367	       -2.450242
4.0500000000000e-001	      -0.9222094	       -2.675034
4.0625000000000e-001	       -1.009391	       -2.865374
4.0750000000000e-001	       -1.084283	       -3.002637
4.0875000000000e-001	       -1.144832	       -3.106378
4.1000000000000e-001	        -1.18848	       -3.178685
4.1125000000000e-001	       -1.218852	       -3.198457
4.1250000000000e-001	       -1.228014	       -3.174295
4.1375000000000e-001	       -1.220938	       -3.108035
4.1500000000000e-001	       -1.196304	       -2.999467
4.1625000000000e-001	       -1.155919	       -2.846437
4.1750000000000e-001	       -1.099724	       -2.667472
4.1875000000000e-001	       -1.027137	        -2.45644
4.2000000000000e-001	      -0.9435683	       -2.188493
4.2125000000000e-001	      -0.8428271	        -1.90456
4.2250000000000e-001	      -0.7333307	       -1.603803
4.2375000000000e-001	      -0.6153921	       -1.278009
4.2500000000000e-001	      -0.4896601	      -0.9335955
4.2625000000000e-001	        -0.35591	      -0.5737879
4.2750000000000e-001	      -0.2187649	      -0.2057087
4.2875000000000e-001	      -0.0799361	       0.1622546
4.3000000000000e-001	      0.06195429	       0.5259944
4.3125000000000e-001	       0.1988684	       0.8858868
4.3250000000000e-001	       0.3379602	        1.259546
4.3375000000000e-001	       0.4701604	        1.585651
4.3500000000000e-001	       0.5956421	        1.903576
4.3625000000000e-001	       0.7133719	        2.164597
4.3750000000000e-001	       0.8217606	        2.468688
4.3875000000000e-001	       0.9230048	        2.706349
4.4000000000000e-001	        1.007106	        2.901501
4.4125000000000e-001	        1.085066	         3.08462
4.4250000000000e-001	        1.149739	        3.221346
4.4375000000000e-001	        1.197856	        3.309322
4.4500000000000e-001	        1.232202	        3.360862
4.4625000000000e-001	        1.251201	        3.363998
4.4750000000000e-001	        1.253701	         3.34021
4.4875000000000e-001	        1.239003	        3.252025
