Data written for 2 signals in a group signal
Ref Chan:Resp Chan	 0-Z:0-Z	 0-Z:0-Z
Channel Names	I1	I2
Channel Comments		

   	 X1	 X2
Time	 Real	Real
   	EU	EU

Units:
sec	N	m/s²
0.0000000000000e+000	        1.358025	      -0.2178234
1.2500000000000e-003	        1.354663	      -0.2216157
2.5000000000000e-003	        1.338719	      -0.2180443
3.7500000000000e-003	        1.312051	      -0.2097791
5.0000000000000e-003	        1.275508	      -0.2035818
6.2500000000000e-003	        1.223649	      -0.1967138
7.5000000000000e-003	        1.166663	      -0.1699548
8.7500000000000e-003	        1.096151	      -0.1565855
1.0000000000000e-002	        1.014907	      -0.1403642
1.1250000000000e-002	        0.926876	       -0.114357
1.2500000000000e-002	        0.831159	     -0.08133189
1.3750000000000e-002	        0.729119	     -0.04686393
1.5000000000000e-002	       0.6200141	     -0.01154272
1.6250000000000e-002	       0.5073738	      0.02022712
1.7500000000000e-002	       0.3846036	      0.05001236
1.8750000000000e-002	       0.2623994	      0.06853942
2.0000000000000e-002	        0.136949	       0.1037916
2.1250000000000e-002	     0.008280854	       0.1325421
2.2500000000000e-002	      -0.1206467	       0.1720308
2.3750000000000e-002	      -0.2507156	       0.2068472
2.5000000000000e-002	      -0.3768326	       0.2379255
2.6250000000000e-002	      -0.5026517	       0.2612654
2.7500000000000e-002	      -0.6188877	        0.288762
2.8750000000000e-002	      -0.7309961	       0.3262033
3.0000000000000e-002	      -0.8396321	       0.3334352
3.1250000000000e-002	      -0.9391438	       0.3608264
3.2500000000000e-002	       -1.028694	       0.3926652
3.3750000000000e-002	       -1.108377	       0.4074025
3.5000000000000e-002	       -1.178731	       0.4314019
3.6250000000000e-002	       -1.237362	       0.4517696
3.7500000000000e-002	       -1.287666	       0.4812066
3.8750000000000e-002	       -1.321783	       0.4812331
4.0000000000000e-002	       -1.346615	       0.4768568
4.1250000000000e-002	       -1.360032	       0.4815187
4.2500000000000e-002	       -1.359323	       0.4916374
4.3750000000000e-002	       -1.347179	       0.4904934
4.5000000000000e-002	       -1.321046	       0.4827854
4.6250000000000e-002	       -1.288825	       0.4702609
4.7500000000000e-002	        -1.23462	       0.4574891
4.8750000000000e-002	       -1.172024	        0.461807
5.0000000000000e-002	        -1.10203	       0.4429746
5.1250000000000e-002	       -1.020063	       0.4207461
5.2500000000000e-002	      -0.9276308	       0.4072757
5.3750000000000e-002	      -0.8262565	       0.3948188
5.5000000000000e-002	      -0.7172442	       0.3701413
5.6250000000000e-002	      -0.6035831	       0.3342799
5.7500000000000e-002	      -0.4836267	       0.3034793
5.8750000000000e-002	      -0.3534198	       0.2724732
6.0000000000000e-002	      -0.2244576	       0.2370757
6.1250000000000e-002	     -0.09269633	        0.198791
6.2500000000000e-002	      0.03923517	       0.1652766
6.3750000000000e-002	       0.1699859	       0.1212861
6.5000000000000e-002	       0.3009387	      0.07504256
6.6250000000000e-002	        0.423916	       0.0430209
6.7500000000000e-002	       0.5517119	     0.001047798
6.8750000000000e-002	       0.6724525	      -0.0441874
7.0000000000000e-002	       0.7853452	     -0.07130138
7.1250000000000e-002	       0.8930698	     -0.09563073
7.2500000000000e-002	       0.9938623	      -0.1226816
7.3750000000000e-002	        1.086066	      -0.1390903
7.5000000000000e-002	         1.16797	      -0.1684233
7.6250000000000e-002	         1.24105	      -0.1938692
7.7500000000000e-002	        1.300821	      -0.2147499
7.8750000000000e-002	        1.353915	      -0.2471313
8.0000000000000e-002	        1.392618	      -0.2611278
8.1250000000000e-002	         1.41841	      -0.2700958
8.2500000000000e-002	        1.431689	      -0.2637958
8.3750000000000e-002	        1.432396	      -0.2577513
8.5000000000000e-002	        1.421014	      -0.2680506
8.6250000000000e-002	         1.39416	      -0.2625816
8.7500000000000e-002	        1.360722	      -0.2635718
8.8750000000000e-002	         1.31347	      -0.2432806
9.0000000000000e-002	        1.253262	      -0.2270527
9.1250000000000e-002	        1.183488	      -0.2020382
9.2500000000000e-002	        1.104462	       -0.178155
9.3750000000000e-002	        1.017092	      -0.1510583
9.5000000000000e-002	       0.9214059	      -0.1266264
9.6250000000000e-002	       0.8190255	      -0.1011556
9.7500000000000e-002	       0.7037535	     -0.08914406
9.8750000000000e-002	       0.5886712	     -0.04110965
1.0000000000000e-001	       0.4662857	    -0.005383522
1.0125000000000e-001	        0.340153	      0.03177707
1.0250000000000e-001	       0.2107217	      0.07071788
1.0375000000000e-001	      0.07839893	       0.0964964
1.0500000000000e-001	     -0.05284421	       0.1311434
1.0625000000000e-001	      -0.1868655	       0.1768081
1.0750000000000e-001	      -0.3134738	       0.2067743
1.0875000000000e-001	      -0.4396306	       0.2298074
1.1000000000000e-001	      -0.5621617	        0.269906
1.1125000000000e-001	      -0.6786359	       0.2964902
1.1250000000000e-001	      -0.7882631	       0.3356436
1.1375000000000e-001	      -0.8896253	       0.3547581
1.1500000000000e-001	      -0.9838721	       0.3932791
1.1625000000000e-001	       -1.069352	       0.4167363
1.1750000000000e-001	       -1.146838	       0.4464163
1.1875000000000e-001	       -1.209127	       0.4701378
1.2000000000000e-001	       -1.262517	        0.479569
1.2125000000000e-001	       -1.305103	       0.4948483
1.2250000000000e-001	       -1.336194	        0.507906
1.2375000000000e-001	       -1.356312	       0.5246615
1.2500000000000e-001	        -1.36318	        0.522711
1.2625000000000e-001	       -1.363145	       0.5241771
1.2750000000000e-001	       -1.340259	       0.5317372
1.2875000000000e-001	       -1.309764	       0.5144293
1.3000000000000e-001	       -1.268803	       0.5041435
1.3125000000000e-001	       -1.214561	       0.4803231
1.3250000000000e-001	        -1.14911	       0.4695903
1.3375000000000e-001	       -1.074108	       0.4558965
1.3500000000000e-001	      -0.9880504	        0.431276
1.3625000000000e-001	      -0.8953235	       0.4013804
1.3750000000000e-001	      -0.7934024	       0.3627155
1.3875000000000e-001	      -0.6793139	       0.3358161
1.4000000000000e-001	      -0.5637755	       0.3025405
1.4125000000000e-001	      -0.4422613	       0.2693529
1.4250000000000e-001	      -0.3167596	       0.2435674
1.4375000000000e-001	      -0.1890562	        0.206143
1.4500000000000e-001	     -0.05817773	       0.1619302
1.4625000000000e-001	      0.06816988	        0.123904
1.4750000000000e-001	       0.2051627	      0.09059922
1.4875000000000e-001	       0.3364683	      0.07031359
1.5000000000000e-001	       0.4633703	      0.03833625
1.5125000000000e-001	       0.5884289	     -0.01359033
1.5250000000000e-001	       0.7097741	     -0.03803954
1.5375000000000e-001	       0.8249148	     -0.07570743
1.5500000000000e-001	       0.9322163	      -0.1083607
1.5625000000000e-001	        1.031749	      -0.1307985
1.5750000000000e-001	        1.121629	      -0.1563898
1.5875000000000e-001	        1.206308	        -0.18271
1.6000000000000e-001	        1.278363	      -0.2073785
1.6125000000000e-001	        1.339189	      -0.2174717
1.6250000000000e-001	        1.388222	      -0.2294907
1.6375000000000e-001	        1.424666	      -0.2367793
1.6500000000000e-001	        1.449649	      -0.2483271
1.6625000000000e-001	        1.459467	      -0.2633772
1.6750000000000e-001	        1.463547	      -0.2634556
1.6875000000000e-001	        1.452163	       -0.265636
1.7000000000000e-001	        1.425397	      -0.2575136
1.7125000000000e-001	          1.3874	      -0.2457266
1.7250000000000e-001	        1.338913	      -0.2372577
1.7375000000000e-001	        1.277414	      -0.2388917
1.7500000000000e-001	        1.205061	      -0.2242921
1.7625000000000e-001	        1.123792	      -0.1872046
1.7750000000000e-001	        1.028145	      -0.1655617
1.7875000000000e-001	       0.9294981	      -0.1471823
1.8000000000000e-001	       0.8199073	      -0.1164925
1.8125000000000e-001	       0.7038676	     -0.09193372
1.8250000000000e-001	       0.5800552	     -0.06103745
1.8375000000000e-001	       0.4500848	     -0.01356168
1.8500000000000e-001	        0.317581	      0.02368419
1.8625000000000e-001	       0.1788039	      0.07164727
1.8750000000000e-001	      0.04392036	       0.1110839
1.8875000000000e-001	     -0.09408712	       0.1407786
1.9000000000000e-001	      -0.2317879	        0.182052
1.9125000000000e-001	      -0.3670377	       0.2209488
1.9250000000000e-001	      -0.4979667	       0.2545743
1.9375000000000e-001	      -0.6243891	       0.2890894
1.9500000000000e-001	      -0.7453432	       0.3167413
1.9625000000000e-001	      -0.8599101	       0.3512266
1.9750000000000e-001	      -0.9694064	       0.3940516
1.9875000000000e-001	       -1.064835	       0.4177001
2.0000000000000e-001	       -1.153229	       0.4371814
2.0125000000000e-001	       -1.231423	       0.4587768
2.0250000000000e-001	       -1.299227	       0.4986355
2.0375000000000e-001	       -1.356078	       0.5094513
2.0500000000000e-001	       -1.399553	       0.5145326
2.0625000000000e-001	       -1.435545	       0.5217882
2.0750000000000e-001	       -1.449683	        0.530939
2.0875000000000e-001	       -1.454646	       0.5393422
2.1000000000000e-001	       -1.447739	       0.5440281
2.1125000000000e-001	       -1.426054	       0.5427257
2.1250000000000e-001	       -1.390815	       0.5298469
2.1375000000000e-001	       -1.341505	        0.529111
2.1500000000000e-001	       -1.280482	       0.4903359
2.1625000000000e-001	       -1.210291	       0.4730417
2.1750000000000e-001	        -1.12698	       0.4587626
2.1875000000000e-001	       -1.028818	       0.4297231
2.2000000000000e-001	      -0.9260138	       0.4132184
2.2125000000000e-001	      -0.8140673	       0.3673513
2.2250000000000e-001	      -0.6953524	       0.3362219
2.2375000000000e-001	      -0.5705377	       0.2944395
2.2500000000000e-001	      -0.4403496	       0.2660196
2.2625000000000e-001	      -0.3112382	       0.2213378
2.2750000000000e-001	      -0.1677284	       0.1817765
2.2875000000000e-001	     -0.02722075	       0.1527478
2.3000000000000e-001	       0.1121391	       0.1020964
2.3125000000000e-001	       0.2520677	      0.06506457
2.3250000000000e-001	       0.3906189	      0.03189411
2.3375000000000e-001	       0.5262102	     -0.01080885
2.3500000000000e-001	       0.6570953	     -0.05503407
2.3625000000000e-001	       0.7820863	     -0.07739701
2.3750000000000e-001	       0.8993247	      -0.1104045
2.3875000000000e-001	         1.01291	      -0.1375167
2.4000000000000e-001	        1.114575	       -0.161245
2.4125000000000e-001	         1.20633	       -0.188452
2.4250000000000e-001	        1.286547	       -0.211336
2.4375000000000e-001	        1.355187	       -0.231587
2.4500000000000e-001	        1.412753	      -0.2462894
2.4625000000000e-001	        1.454427	      -0.2690866
2.4750000000000e-001	        1.490973	      -0.2790464
2.4875000000000e-001	        1.510904	      -0.2873927
2.5000000000000e-001	        1.517469	      -0.2960845
2.5125000000000e-001	        1.511899	      -0.2955423
2.5250000000000e-001	        1.493882	      -0.2930423
2.5375000000000e-001	        1.463553	      -0.2768334
2.5500000000000e-001	        1.421573	      -0.2764564
2.5625000000000e-001	        1.367476	      -0.2558073
2.5750000000000e-001	        1.296674	       -0.239933
2.5875000000000e-001	        1.221766	      -0.2198465
2.6000000000000e-001	        1.133342	      -0.1964905
2.6125000000000e-001	        1.034966	      -0.1713376
2.6250000000000e-001	       0.9270464	      -0.1383358
2.6375000000000e-001	       0.8099651	       -0.109344
2.6500000000000e-001	       0.6862761	     -0.07387006
2.6625000000000e-001	       0.5549285	     -0.04199989
2.6750000000000e-001	       0.4237028	     0.002508289
2.6875000000000e-001	       0.2852784	      0.03967988
2.7000000000000e-001	       0.1452722	      0.06338791
2.7125000000000e-001	      0.00453032	       0.1019862
2.7250000000000e-001	      -0.1352166	       0.1609242
2.7375000000000e-001	      -0.2740405	       0.1953916
2.7500000000000e-001	      -0.4101756	       0.2307481
2.7625000000000e-001	      -0.5421004	       0.2666006
2.7750000000000e-001	      -0.6727079	       0.3015851
2.7875000000000e-001	      -0.7921529	       0.3317199
2.8000000000000e-001	      -0.9076976	       0.3599158
2.8125000000000e-001	        -1.01535	       0.3913829
2.8250000000000e-001	       -1.114087	       0.4192086
2.8375000000000e-001	       -1.203601	        0.441169
2.8500000000000e-001	       -1.280975	       0.4484951
2.8625000000000e-001	       -1.351777	        0.466319
2.8750000000000e-001	       -1.401493	       0.4771471
2.8875000000000e-001	       -1.441559	       0.4897234
2.9000000000000e-001	       -1.470499	       0.5000886
2.9125000000000e-001	       -1.484751	       0.4937793
2.9250000000000e-001	       -1.484332	       0.4905176
2.9375000000000e-001	       -1.471079	       0.4956318
2.9500000000000e-001	       -1.443506	       0.4907833
2.9625000000000e-001	       -1.405436	       0.4647704
2.9750000000000e-001	        -1.35396	       0.4568787
2.9875000000000e-001	       -1.283707	       0.4315906
3.0000000000000e-001	       -1.206819	       0.3969959
3.0125000000000e-001	       -1.118709	        0.379044
3.0250000000000e-001	       -1.021319	       0.3586317
3.0375000000000e-001	      -0.9154572	       0.3239382
3.0500000000000e-001	      -0.8004206	        0.298888
3.0625000000000e-001	      -0.6831988	        0.252524
3.0750000000000e-001	      -0.5478084	       0.2184686
3.0875000000000e-001	      -0.4125789	       0.2026104
3.1000000000000e-001	      -0.2746452	       0.1640562
3.1125000000000e-001	      -0.1328522	       0.1369574
3.1250000000000e-001	       0.0113466	      0.09660192
3.1375000000000e-001	        0.156419	      0.06294624
3.1500000000000e-001	       0.2996179	      0.02103076
3.1625000000000e-001	       0.4389439	     -0.01675424
3.1750000000000e-001	       0.5757237	       -0.048339
3.1875000000000e-001	        0.711542	     -0.08676861
3.2000000000000e-001	       0.8375127	      -0.1216622
3.2125000000000e-001	       0.9566086	      -0.1461952
3.2250000000000e-001	        1.066602	      -0.1761373
3.2375000000000e-001	        1.167544	       -0.213671
3.2500000000000e-001	        1.257724	      -0.2490591
3.2625000000000e-001	        1.333678	      -0.2573643
3.2750000000000e-001	        1.405797	       -0.279094
3.2875000000000e-001	        1.461661	       -0.281265
3.3000000000000e-001	        1.504886	      -0.3036723
3.3125000000000e-001	        1.535981	      -0.3048357
3.3250000000000e-001	        1.554628	      -0.3042557
3.3375000000000e-001	        1.559215	      -0.3203598
3.3500000000000e-001	        1.551216	      -0.3184476
3.3625000000000e-001	        1.530659	      -0.3167974
3.3750000000000e-001	        1.493731	      -0.3101925
3.3875000000000e-001	        1.449295	      -0.2929346
3.4000000000000e-001	        1.388387	      -0.2763291
3.4125000000000e-001	        1.316805	      -0.2599589
3.4250000000000e-001	        1.233517	      -0.2300261
3.4375000000000e-001	        1.137545	      -0.2006307
3.4500000000000e-001	        1.031785	      -0.1643345
3.4625000000000e-001	       0.9149097	      -0.1432017
3.4750000000000e-001	       0.7956141	      -0.1191324
3.4875000000000e-001	       0.6655941	      -0.0822295
3.5000000000000e-001	       0.5304916	     -0.04831768
3.5125000000000e-001	       0.3903342	     -0.01308114
3.5250000000000e-001	       0.2488313	      0.02563857
3.5375000000000e-001	       0.1042055	      0.07432052
3.5500000000000e-001	     -0.04113452	       0.1208859
3.5625000000000e-001	      -0.1859832	       0.1440755
3.5750000000000e-001	       -0.331915	       0.1843063
3.5875000000000e-001	      -0.4707361	       0.2105404
3.6000000000000e-001	      -0.6077731	       0.2360484
3.6125000000000e-001	      -0.7399802	       0.2689488
3.6250000000000e-001	      -0.8672757	       0.3097403
3.6375000000000e-001	      -0.9858433	       0.3434756
3.6500000000000e-001	       -1.096045	       0.3793182
3.6625000000000e-001	       -1.199935	          0.4065
3.6750000000000e-001	       -1.284193	       0.4336401
3.6875000000000e-001	       -1.361656	       0.4429204
3.7000000000000e-001	       -1.426941	       0.4603928
3.7125000000000e-001	       -1.478375	       0.4683436
3.7250000000000e-001	       -1.514728	       0.4769405
3.7375000000000e-001	       -1.538216	       0.4894405
3.7500000000000e-001	       -1.547978	       0.4809777
3.7625000000000e-001	       -1.544992	       0.4770591
3.7750000000000e-001	       -1.526347	       0.4697251
3.7875000000000e-001	       -1.488898	       0.4590925
3.8000000000000e-001	        -1.44235	       0.4529783
3.8125000000000e-001	       -1.382284	       0.4369134
3.8250000000000e-001	       -1.310692	          0.4281
3.8375000000000e-001	       -1.226838	       0.3984664
3.8500000000000e-001	       -1.133513	       0.3757679
3.8625000000000e-001	       -1.033746	       0.3478954
3.8750000000000e-001	      -0.9120155	       0.3102569
3.8875000000000e-001	      -0.7886052	         0.29011
3.9000000000000e-001	      -0.6570064	        0.244937
3.9125000000000e-001	      -0.5185575	       0.2123352
3.9250000000000e-001	      -0.3749157	       0.1723806
3.9375000000000e-001	      -0.2277856	        0.146759
3.9500000000000e-001	     -0.07755377	       0.1124934
3.9625000000000e-001	      0.07150306	       0.0603436
3.9750000000000e-001	       0.2216498	      0.02169288
3.9875000000000e-001	       0.3740113	     -0.02499933
4.0000000000000e-001	       0.5184004	     -0.06456301
4.0125000000000e-001	       0.6593088	      -0.1080612
4.0250000000000e-001	       0.7929921	       -0.138547
4.0375000000000e-001	       0.9202548	      -0.1760203
4.0500000000000e-001	        1.038931	      -0.1989166
4.0625000000000e-001	        1.145836	      -0.2313559
4.0750000000000e-001	        1.250144	      -0.2574054
4.0875000000000e-001	        1.338775	       -0.283477
4.1000000000000e-001	        1.416134	      -0.2964378
4.1125000000000e-001	        1.481742	      -0.3152872
4.1250000000000e-001	         1.53672	      -0.3502806
4.1375000000000e-001	        1.577181	      -0.3475395
4.1500000000000e-001	        1.605511	      -0.3532455
4.1625000000000e-001	        1.619574	      -0.3693635
4.1750000000000e-001	        1.615604	      -0.3655227
4.1875000000000e-001	        1.602931	      -0.3633951
4.2000000000000e-001	        1.573082	       -0.364687
4.2125000000000e-001	        1.531009	      -0.3380825
4.2250000000000e-001	        1.474172	      -0.3259429
4.2375000000000e-001	        1.405115	      -0.3106646
4.2500000000000e-001	        1.324175	      -0.3006066
4.2625000000000e-001	        1.229913	      -0.2802069
4.2750000000000e-001	         1.12965	      -0.2568717
4.2875000000000e-001	        1.015195	      -0.2217062
4.3000000000000e-001	       0.8929912	      -0.1991497
4.3125000000000e-001	       0.7634085	      -0.1696439
4.3250000000000e-001	       0.6283867	      -0.1263783
4.3375000000000e-001	       0.4878641	     -0.08727485
4.3500000000000e-001	       0.3445521	      -0.0531042
4.3625000000000e-001	       0.1974374	     -0.01049825
4.3750000000000e-001	       0.0457308	       0.0398482
4.3875000000000e-001	      -0.1006374	      0.07362355
4.4000000000000e-001	      -0.2496424	       0.1078034
4.4125000000000e-001	       -0.395766	       0.1340632
4.4250000000000e-001	      -0.5391981	       0.1755061
4.4375000000000e-001	      -0.6780861	       0.2192708
4.4500000000000e-001	      -0.8103333	       0.2581177
4.4625000000000e-001	      -0.9386115	       0.2905069
4.4750000000000e-001	       -1.051111	        0.318034
4.4875000000000e-001	       -1.157906	       0.3557656
